3.411861459175158928e-01
1.823270914662212527e-01
1.735407436364506950e-01
2.517648924223669926e-01
3.160269118808243238e-01
1.186698240194400122e-01
3.037063017355116079e-01
2.513802404800933310e-01
4.404715728415628528e-01
2.426864419842635900e-01
2.246611710030834153e-01
1.933754503419260751e-01
1.667565403027120030e-01
2.698647977102655027e-01
1.099463103927795782e-01
1.090344524097092982e-01
8.960876266740161467e-02
2.791287843612977881e-01
3.891999100622544616e-01
3.515959230465455221e-01
2.681986188085536127e-01
2.389594557229900995e-01
2.319980278519676031e-01
1.981268556376949708e-01
8.490200256485773700e-01
1.231038751088238542e-01
7.662143778583005438e-02
2.726437495144216072e-01
4.679659953455696519e-01
2.763760750286845536e-01
4.388654318702500667e-01
9.118214400529477126e-02
8.759188593253630639e-02
3.396487705272614455e-01
1.187294768197696138e-01
3.453290611847966152e-01
1.016178452330552817e-01
9.637115885793617887e-02
4.981627249207145613e-01
2.255191147195238222e-01
2.051612561070604301e-01
6.038243114997301486e-01
2.820151471590804371e-01
2.038264695852591291e-01
1.534264919506361236e-01
1.674625254089586457e-01
1.947200537270327159e-01
8.233006072973479694e-02
5.065522808374871566e-01
1.038544104736803392e-01
2.992170540153017422e-01
1.431166092172636572e-01
5.107940021720231982e-01
3.821280176586532296e-01
1.817487858095215847e-01
9.748944648118879064e-02
2.255308523905330265e-01
1.495981335363963938e-01
2.450407816322040799e-01
2.274242575916332609e-01
2.962443489308858591e-01
1.512854471160090808e-01
1.168501384758614675e-01
1.421287902502387790e-01
4.467514829638368767e-01
6.771302855722183267e-02
1.766906951002260306e-01
9.705381674260823988e-02
2.991232196736128279e-01
2.662609733673795831e-01
3.104367296047086389e-01
1.076782239161381965e-01
5.963886729522392960e-01
2.893261210343587853e-01
1.453495806785659594e-01
1.069031043947775705e+00
1.723782271690909862e-01
1.206713273217593085e-01
4.591015185907906249e-01
1.738415731336641068e-01
1.383971820708324862e-01
2.908760255050409915e-01
2.999869159458212753e-01
1.675564685166966161e-01
2.797913306486200513e-01
1.524037131994206151e-01
1.612479153397583242e-01
1.730997887111742073e-01
2.251939546225046607e-01
2.330826705277471156e-01
2.138753926741027156e-01
3.483814797385647033e-01
2.832051147444189509e-01
1.875929940342586366e-01
3.368967576060312163e-01
8.318806918207738432e-02
6.562212064879316409e-02
1.569258529950915415e-01
4.325309302903291298e-01
1.434259920041662251e-01
4.241821419745103183e-01
2.152845023069115404e-01
9.173166014650062372e-02
2.475782743745452708e-01
4.751447141488568393e-02
1.243880773128671902e-01
2.244794582654770498e-01
3.692157723859779139e-01
1.128515851211609189e-01
4.456998055518968660e-01
2.200665717508013264e-01
3.192527493729566679e-01
2.690384672845245184e-01
1.813038563503740763e-01
3.423105529280707771e-01
3.740450489274294577e-01
4.259496653244164155e-01
2.265521387639507778e-01
5.065159417946287768e-01
1.966079548424097823e-01
5.284048920039294966e-02
1.574480059187646774e-01
1.903882785733645167e-01
1.475774521100125525e-01
1.588988943489825501e-01
2.300429273797371665e-01
8.143095267944486237e-02
7.539600632478914155e-02
5.164849647928020371e-01
2.803291711694183563e-01
2.223902922497131562e-01
2.024867610305046417e-01
7.798336195447228003e-02
2.076784624407248536e-01
4.463074813918677108e-02
1.471185834988471275e-01
4.405412544504757610e-01
1.627247205994047929e-01
3.877018113436637714e-01
1.825441646833589338e-01
3.052061474168015209e-01
1.853454191155237130e-01
1.575607961315165229e-01
1.373691233285813107e-01
1.762978874591484280e-01
1.955352050028679733e-01
3.236001910401642978e-01
1.848402349464907668e-01
2.017480154997511321e-01
2.476629242081547499e-01
2.205082068555468955e-01
5.119074771402547519e-01
2.733421472584818268e-01
2.662896005848436332e-01
7.993407046148466588e-02
1.841270039774244860e-01
2.824441609711201284e-01
1.892086757765134297e-01
2.527596220848128405e-01
9.737079055221610491e-02
6.793521444686037580e-02
4.647070620212167547e-01
3.330983213476118587e-01
2.453553882681560883e-01
1.189178892088949280e-01
3.431290823541208734e-01
1.305519252910777861e-01
2.497182830130799669e-01
1.626230778282231615e-01
5.161069222131596801e-01
1.406147656672274981e-01
2.835676609879742016e-01
5.737738084869037358e-01
2.662317415328405157e-01
3.002929580354924410e-01
9.281650184736833786e-02
1.560263308113891967e-01
3.612101788779575884e-01
2.238602997364967928e-01
8.005123725466287699e-01
3.555269991360200388e-01
1.665811618579907949e-01
8.493563821717196871e-02
1.534933833811224502e-01
7.826591255671073999e-02
3.133178930220970049e-01
6.694741126043160517e-02
3.630361535427379382e-01
1.634362388992934845e-01
1.669886290658723904e-01
3.983262416642626147e-01
2.177210351169207858e-01
2.784931671509734974e-01
2.735321144969324880e-01
1.916422740396429014e-01
7.389543375791771118e-02
1.746366045560621416e-01
1.084258864158993696e-01
1.827279517763855665e-01
2.042820468794899202e-01
2.947900242121645475e-01
2.987924691512241493e-01
9.166004049419648747e-02
2.019999515503720366e-01
1.990657687768971895e-01
7.126136154893817354e-01
2.648737801128875358e-01
3.116345411937050391e-01
1.901388780717924165e-01
1.793263130375476189e-01
3.740972375951349682e-01
2.023049515127859632e-01
2.283960176393348140e-01
2.073302122399060254e-01
1.425776457150089160e-01
2.514488211373351323e-01
2.478208882176325123e-01
1.857264192390926105e-01
4.233691023353517990e-01
1.761025652110478068e-01
5.038495403080986978e-01
4.087926009676461914e-01
1.254677311204595858e-01
3.246328994180670557e-01
5.157041716640080598e-01
5.436285631885276470e-02
2.254477779351618250e-01
6.793815917127825621e-01
1.014012026948942768e-01
3.642454322487847507e-01
3.906510033282812877e-01
1.409903859839283791e-01
2.176871682457505175e-01
2.199910198350148172e-01
4.846642702368872402e-02
1.125222298183955888e-01
2.108666518532747447e-01
3.093705632373869308e-01
5.687348098408463448e-01
2.648005085431546779e-01
2.582692154517742811e-01
3.024369512724706111e-01
2.311514785250730064e-01
2.448313169398239064e-01
2.299196722209788657e-01
2.551137257623184995e-01
1.606998016836951038e-01
1.709783358947227494e-01
1.364026910285973948e-01
3.129137019766518035e-01
3.640196442934287568e-01
3.576031018351761293e-01
2.447058661855620598e-01
1.572367791147678828e-01
2.625080098763019065e-01
6.225063741587969629e-02
2.935490996004337938e-01
3.330069507151026675e-01
1.733243862954591819e-01
2.425385957623398259e-01
1.969528611335151780e-01
2.279499427866502892e-01
1.369488082395278750e-01
2.179425198522664808e-01
1.035574283908804183e-01
1.979660446196500057e-01
3.571989718563209348e-01
1.626790780998082497e-01
2.352642923947100839e-01
4.236762093700254805e-01
2.035796677226484053e-01
3.190301388186623233e-01
2.022043305133955360e-01
1.481321009208519113e-01
2.447771957876044846e-01
1.889412817475338291e-01
4.244130340471204826e-02
8.357691917418224037e-01
3.599642691091369251e-01
2.521891806775001244e-01
2.614762856133127089e-01
5.123961174811982877e-01
2.848110791253698482e-01
1.394906822783242295e-01
3.069698655696411205e-01
5.166927264263542624e-02
4.445782213991091858e-01
2.009480290745921660e-01
4.145667947045744706e-01
1.236141957788779167e-01
2.721694137891735310e-01
2.004903280590870918e-01
2.910276336741169922e-01
1.314515547162294906e-01
4.107596270424825335e-01
1.963577805070452764e-01
3.201384982552418212e-01
1.921249078208961680e-01
3.183409722293600308e-01
1.883264220720335391e-01
2.605375088396049144e-01
1.784482935881296362e-01
1.902452400268186683e-01
3.353827689309170634e-01
1.473803527161658966e-01
1.242846985985627123e-01
2.416540325125777766e-01
1.329023251572067355e-01
1.749292301661623528e-01
1.169353852161649221e-01
4.803827754492130953e-01
2.396266814397741418e-01
3.071906898493126925e-01
6.144086934003467615e-01
4.102760990646501793e-01
4.447523611227735540e-02
5.164789292963909567e-02
1.210571490780985027e-01
4.870586213631584172e-01
2.964100501777912622e-01
2.431267860139659231e-01
2.412389129545216282e-01
5.171921497451567040e-01
2.487346544710906382e-01
2.684834797059083011e-01
3.015647079405294265e-02
1.709158278880412440e-01
1.915281351693521594e-01
4.513424304066294135e-01
2.199835587361864131e-01
2.831788606361052008e-01
2.059399636319408644e-01
2.567770195467139471e-01
6.470995823166127980e-01
1.736527308155249305e-01
1.801660396674937548e-01
2.790098317450439569e-01
2.847685344376645888e-01
5.789181226966535337e-02
3.213862358266209029e-01
2.279786825385355653e-01
3.137239777539799213e-01
6.348388335864995069e-01
4.332869040829593343e-01
1.499248947673064158e-01
7.093111637920319901e-02
2.641834550293379880e-01
2.754569260077681103e-01
4.084076235613351424e-01
5.213550689684630646e-01
3.952229605643953758e-01
2.358654770053845995e-01
1.434453534623419679e-01
1.625178199062550510e-01
3.284422512303964981e-01
2.795013211034991230e-01
4.488943222720169768e-01
1.127717233711383604e-01
3.412874565812278327e-01
3.316808175002016745e-01
4.912318239377954643e-01
1.416986803042590282e-01
2.711990033676872081e-01
2.466467205953001285e-01
2.895105785998866588e-01
1.269028866806080069e-01
1.986310218007080186e-01
4.241012939512192048e-01
4.003169794710007001e-01
1.530851949927996558e-01
6.102220145431296316e-01
3.153455144560423085e-01
1.732503927515623987e-01
7.574722561242959451e-02
1.273352957540392627e-01
3.811446335695189980e-02
4.119555031324159677e-01
1.149205791924538672e-01
3.132697786308037968e-01
2.308818186821189611e-01
3.933461607199576493e-01
1.602146749812461690e-01
3.829234168810495276e-01
2.727974189303586372e-01
2.280345214801448028e-01
8.560658184779154634e-02
7.456252073423186300e-02
2.340513748561095508e-01
1.471734768778589220e-01
1.324112963206182103e-01
3.430668117839681952e-01
5.573596673971714655e-01
6.342064737343353631e-01
2.943417183946036020e-01
4.089973313662949028e-01
1.842702905527685009e-01
2.718686948105331069e-01
1.223166985019875502e-01
3.076182669786560742e-01
1.912637400977387769e-01
3.889055506766796455e-01
3.337916283630641412e-01
2.526332911158613026e-01
1.829329328600803883e-01
2.260518946755454006e-01
1.585385234009346389e+00
4.841053748970708392e-02
1.384163027209704133e-01
1.684923606350788028e-01
1.924295671272354125e-01
1.979434768066334338e-01
1.533341242173698604e-01
4.170653643273699029e-01
4.153626552985307252e-01
1.465066234376265486e-01
1.306873381548386281e-01
1.313065234284583327e-01
9.358339713845650887e-02
3.362741138620923276e-01
1.259109962319878429e-01
1.228249867950044344e-01
2.423324654003556067e-01
1.905062076549313144e-01
5.024859575767971487e-01
2.071474072354173857e-01
1.139583772238823289e-01
2.679554760923594792e-01
2.395898985845513196e-01
3.003857617577524453e-01
1.705461208867677936e-01
3.054012146098155078e-01
1.552354958758925818e-01
3.129285445291635215e-01
1.065011830579989938e-01
3.641331336781590544e-02
5.910327775583262833e-02
9.497776187044171259e-02
2.601336639246161764e-01
1.412952554807056782e-01
1.366210653733782587e-01
1.298798034099634402e-01
1.193389000469446959e-01
1.410637836430196634e-01
3.455900275867713756e-01
9.944369214393011802e-02
1.251964577185524785e-01
1.919102732311509518e-01
4.408019989838475317e-01
9.362979796261557131e-02
2.163135726531619785e-01
5.752212043736223412e-01
3.207250491664112579e-01
4.874506124209158076e-01
1.966379293350787316e-01
3.071557630284808549e-01
2.919726758971777913e-01
2.562712977103572820e-01
3.656832578104206588e-01
2.852499144800904607e-01
1.620494280107989682e-01
3.019825675884124094e-01
4.047823302455386685e-01
1.662518148854383593e-01
2.134214013934475407e+00
2.420874033240695278e-01
1.438534066191751726e-01
7.737486399735117593e-02
2.826861066141569401e-01
1.716547729793049537e-01
4.263818768787823732e-01
2.703042236337021009e-01
4.376000271073678949e-01
1.492597576552087413e-01
1.515281551183153830e-01
6.196198882358876919e-02
1.810132832636921485e-01
3.663320237275451974e-01
2.503064300211677584e-01
1.613418147337289388e-01
2.369631194199813551e-01
5.351308636795637508e-01
8.160632855194118740e-01
2.516051857681369519e-01
1.110398267270223532e-01
4.624345453473718837e-01
4.515996432302158969e-01
3.031742856175319023e-01
8.434243635804164474e-02
6.047009718777100057e-02
4.645938512932101805e-01
4.044465374958191584e-01
3.305114804317754729e-01
4.105137314192611520e+00
1.279705760690327820e-01
9.582890203374623550e-02
3.106880177475588312e-01
1.078534269568134779e-01
3.990282847247350606e-01
1.128511305206930104e-01
1.545083259551580102e-01
9.665042955772423783e-02
2.877403349591601267e-01
2.572538991650479279e-01
1.296267966297949825e-01
9.612879811365014626e-02
5.160912294245720844e-01
1.714226441112999821e-01
2.443365140349463838e-01
4.344926478868634812e-01
3.481013131777850877e-01
2.217208286639284209e-01
2.465861758770994394e-01
3.612927818600693564e-01
3.227849686658951223e-01
2.083092978967361064e-01
3.994818618305739366e-01
3.111660072511521768e-01
3.058324125394467630e-01
5.904242245446644777e-01
4.382246427610624329e-01
3.068552401062790147e-01
2.776883904813108317e-01
2.359068983249922313e-01
8.844047596060190808e-02
4.481621288160016481e-01
8.588812555985301245e-01
1.998560461507904173e-01
5.002128139569840259e-01
3.627390847732689938e-01
1.697980900227271106e-01
6.704848963256803129e-01
2.053051071377706427e-01
1.254911820042473314e-01
1.562024576442756496e-01
1.322658694462525153e-01
7.420326178218403235e-02
6.411445642182977966e-02
1.677213449228124875e-01
5.928038520208495088e-01
1.474540746669005253e-01
1.954443786955836759e-01
9.422592558142475760e-02
1.876959544057891505e-01
2.510819409400841251e-01
3.005629135566446064e-01
2.969405634565919216e-01
8.915906739277407178e-02
2.709299918189717604e-01
3.281418291416398625e-01
3.798944358706379254e-01
5.085204921764410191e-01
1.064389840423588529e-01
4.388875695449638847e-01
1.983729806413137009e-01
3.822570135897243038e-01
2.494126440928788602e-01
4.054249198690210720e-01
3.715528987266873973e-01
1.586751450144451847e-01
2.524957755457133413e-01
3.973947357980110451e-01
4.597158352271446535e-01
4.919031922549694791e-01
2.532042253153732880e-01
3.382403049076668777e-01
3.256204261370063691e-01
5.480500493534627982e-01
2.088155414532948118e-01
6.502725343621443832e-01
1.599063535647538004e-01
1.448151984779931789e-01
1.219601706366605365e+00
1.804270644292366166e-01
2.549326083687183386e-01
6.031898631645317421e-02
1.246806691867801409e-01
3.233635298048300744e-01
1.654971578099237450e-01
4.684762038616238078e-01
1.171803860521635626e-01
2.391544549610492010e-01
6.835219680032262879e-01
2.197121434535833084e-01
3.759582285313308736e-01
2.851386547774910629e-01
3.636178120272972603e-01
2.966292900500640539e-01
2.945162734165023277e-01
2.739738656485196655e-01
4.765301281256558719e-01
3.632200776574188716e-01
5.696837529288676372e-01
3.843857784053645865e-01
3.443509727193304060e-01
8.004688460861786314e-01
5.197147744117246448e-01
6.049442779645513024e-01
1.750520532059712253e-01
1.900951877025433001e-01
3.330254741204666247e-01
2.427687582310530945e-01
3.478125143453864032e-01
4.693649455930750114e-01
1.179380386653310492e-01
1.734252550469534970e-01
3.694383035286532002e-01
3.694504430916070725e-01
2.395128425291786212e-01
5.693086581523479905e-01
4.071696208534139050e-01
3.101782489009097254e-01
1.185600285791556519e-01
6.054482532006508766e-01
1.792699394425121051e+00
2.116263687723091980e-01
4.627696945946334628e-01
1.095812674167723766e-01
7.850079248430779089e-01
1.332933917349276021e-01
1.842308570406876456e-01
1.574525026526897020e-01
3.002428929469297958e-01
4.570885514097727254e-01
2.085348841365700923e-01
1.295800803595904549e-01
1.100407922547188833e-01
3.166607831859126199e-01
2.069300229965211069e-01
1.600464089868623985e-01
2.321321106462909678e-01
1.395207205364197289e-01
3.551539533268703308e-01
4.194305212256139725e-01
1.511310098352979248e-01
3.896390483608571653e-01
5.766591573624215705e-01
2.637575347733011610e-01
6.431346029596802794e-01
5.857543368418309804e-01
6.533788612881736846e-01
6.913863110459363970e-01
1.384189606211652379e-01
1.751356427821699202e-01
2.764925407404889013e-01
1.550380799946707577e-01
2.569869438975065368e-01
4.006837077931643121e-01
1.533927522729428006e-01
1.308104158010723328e-01
2.872505718995018165e-01
2.850539757829806953e-01
4.781120724572311964e-01
3.384315424358732005e-01
5.818831004749952518e-01
5.653556804845495387e-01
1.532608366803369648e-01
7.366185621923156956e-01
4.944002359740365393e-01
3.415323674910432095e-01
2.034111429172959229e-01
7.494394341367447421e-01
4.845962003615350566e-01
3.708374237670483131e-01
7.496465291242289108e-01
4.466072208024219337e-01
4.268181884142814297e-01
8.608507432935585957e-01
4.082690804053092926e-01
4.733411678714876114e-01
2.997942808452880303e-01
1.469958905256667059e+00
4.324253697410845310e-01
2.494478485548827507e-01
1.980835973625976465e-01
1.259220196803784442e-01
2.035884642710764358e-01
3.385560234994076656e-01
4.555528327865615568e-01
2.938376206424536674e-01
2.544914060860952176e-01
4.017684407097821958e-02
2.383727763867183602e-01
3.860002636454819003e-01
3.175688535641172372e-01
3.286687313698031243e-01
2.461775871632281842e-01
2.405435375568106826e-01
3.451353874654977671e-01
2.866189010897123857e-01
2.546363046205872838e-01
2.183301669113066890e-01
1.935981117558883968e-01
4.588856638447577074e-01
2.515655765573034941e-01
2.192843273606955024e-01
3.837157315610677522e-01
1.817445094653490911e-01
2.159964158752694374e-01
3.870058411379339591e-01
7.710082653051377743e-01
4.044827047138978560e-01
3.218494972076357263e-01
1.402074103418251561e-01
2.767106620427302044e-01
1.866670190537502161e-01
3.761453426685688606e-01
2.362741044745092500e-01
3.248478926330932159e-01
6.690329718581863316e-01
3.626233119272027627e-01
4.076560966865635516e-01
4.856495268796066078e-01
2.492336796528955567e-01
1.601419859420623315e-01
1.495295956542471161e-01
3.092718553935843717e-01
7.645896895604989973e-01
4.360155142595363298e-01
2.945236826362088167e-01
1.207470832058284427e-01
6.800551193294850361e-01
3.321955068035551406e-01
8.362493351230720906e-01
2.113044484076733176e-01
2.262694391171499730e-01
6.236297494906204442e-01
5.516201188473720540e-01
4.287603435044232136e-01
3.009962883981674997e-01
3.342983618168332560e-01
3.925809145966883129e-01
1.148901598779190347e-01
2.311341513900453948e-01
2.251707216949931922e-01
3.891459362527464050e-01
4.729620035669005462e-01
4.212358330703580567e-01
2.450527740824239298e-01
1.399347592116252370e-01
2.815884885955700079e-01
4.735922948748010897e-01
1.264814763539334475e-01
3.200976736842029990e-01
3.575528427274061727e-01
8.001210159174454439e-02
2.191026500018562473e-01
2.842107802219914214e-01
4.343114087659695199e-01
1.886649418510882581e-01
2.369260685479668838e-01
1.810074994934682269e-01
3.261083890975992050e-01
2.518999245200002068e-01
2.187833105695446145e-01
3.139037542251631452e-01
4.295663942521101841e-01
6.439715030712567234e-01
3.308892417041533474e-01
6.028633961268095032e-01
1.802698547426441755e-01
1.031854239711588461e-01
3.717602189289715975e-01
7.057601325333833220e-01
3.685444537454370728e+00
2.484709298027922841e-01
2.863178695938870533e-01
3.208736862575543025e-01
1.750881703017849733e-01
1.577244767836334105e-01
4.928919428748417264e-01
3.323802311299074996e-01
5.065451007292561675e-02
3.428618685360626528e-01
2.809580785370112688e-01
1.537857980495367927e-01
5.133878497419076536e-01
1.677162565155494722e-01
3.016898458372718750e-01
2.706520577369522784e-01
2.807294146055607786e-01
2.946389523499098884e-01
6.396683012811507085e-01
1.230566612508644797e-01
8.048983994099334627e-01
2.472563268003812875e-01
6.461955805131565089e-01
1.910963470914406326e-01
3.473346364946447440e-01
4.558372767072927934e-01
2.765864260351751369e-01
2.149665609946840028e-01
5.421560259421426275e-02
4.370477640992391222e-01
1.157737792056076909e-01
5.738597079559761838e-01
1.751723949729218910e-01
2.117876201182912199e-01
3.988687963160926220e-01
2.146705661249339869e-01
3.356920566426844221e-01
1.519495199902852478e-01
2.995312951302638860e-01
2.217824312265720965e-01
1.256283566921118089e-01
2.176613235970673021e-01
2.515340365914394694e-01
2.468024823931168399e+00
4.364137486262821275e-01
3.092210011878857578e-01
3.846606208397834736e-01
3.922931683319791363e-01
2.566870387910133999e-01
1.410168960360785317e-01
4.842589115316953824e-02
3.051169517508132145e-01
1.359643927260935636e-01
2.014458892644309940e-01
5.520338989300176136e-02
6.424696595553015532e-01
2.000154430915047077e-01
1.038685030210764054e-01
1.203700223705417294e+00
1.881288283046841925e-01
1.421373964715386684e-01
2.857378212585338084e-01
1.645209435819068311e-01
2.998114762954178780e-01
2.634159190809303164e-01
1.215906007140606787e-01
5.061167501339355335e-01
4.943049256903624955e-01
6.231758150889991077e-01
7.791836024377298831e-01
2.405370186531466392e-01
7.330658855169400745e-01
2.366350836603113850e-01
2.228557974212563020e-01
6.250847283610203586e-01
3.129323998036707799e+00
2.812927636831409894e-01
3.989128224313763793e-01
3.209685951473223997e-01
4.140888446624298447e-01
3.231197962806697799e-01
3.086067888971388840e-01
2.787334703242818068e-01
2.889614635701959755e-01
2.008342170499892720e-01
3.808423827267225503e-01
2.179015623609860119e-01
1.124161758746053674e-01
2.429832066489918674e-01
3.218854675644792218e-01
1.918933304332383627e-01
2.358040531580918309e-01
1.341086426256228037e-01
6.403555934110692627e-02
1.023732188379493507e-01
2.709683632407955955e-01
1.063480474122574071e+00
2.596186449083174308e-01
2.536930975240510033e-01
1.683143467475364252e-01
5.231034557410082497e-01
1.230913902989713149e-01
2.101644634546011581e-01
2.472974408007694302e-01
9.027975131490364458e-01
4.117977928396230336e-01
1.589819457565589955e-01
2.932582139153714351e-01
5.071283816623328722e-01
2.218749538255971321e-01
4.474872037264050473e-01
2.378818057908053119e-01
4.605371320041963257e-01
4.439357855382119467e-01
2.954221708186476336e-01
2.241739675700126222e-01
1.987778390840137521e-01
1.978627378516252810e-01
2.374703958258373715e-01
4.511966117169853296e-01
2.747107856341657883e-01
2.126514052169497238e-01
1.720120686396386378e-01
2.711340231037274173e-01
8.398256517796828802e-02
2.919507891684516299e-01
1.113525591716726104e-01
2.178333919700446430e-01
8.464634951855054545e-01
2.402282640425031923e-01
3.493471371425700966e-01
2.470353828214839065e-01
5.241521489164403802e-02
1.605366943494155318e-01
2.906967524060793950e-01
2.191045775759638548e-01
7.387911278577310448e-01
2.870298578823499702e-01
1.711116336443641028e-01
3.240833675084116017e-01
3.004314498466951755e-01
1.802765509081029616e-01
1.658448289407623288e-01
2.090500311949979595e-01
2.629238983726284729e-01
7.549764401896302823e-01
5.988716880213970084e-01
1.524125872526158609e-01
9.485683544842637982e-02
4.062537937484956840e-01
3.818409133698101865e-01
4.265416335734901754e-01
1.603166015701724123e-01
2.148184186890463865e-01
2.221230057491888066e-01
4.703234636056163875e-01
2.775016103649337040e-01
2.779628511629348431e-01
5.623545187321677963e-01
2.039570884809581430e-01
9.940295229148968237e-02
2.589762641485316985e-01
2.856903866190728114e-01
2.395995472340941013e-01
7.011952702179344299e-02
3.380486900217432589e-01
1.825766431106723708e-01
2.363401013301966447e-01
2.087168687080350749e-01
4.559356888131114310e-02
7.628507425521038887e-02
2.510838247465473905e-01
5.204641472172415462e-01
1.347967693259644328e-01
1.420437010678395340e-01
2.057392605991281986e-01
1.287653429555717932e-01
1.199633317316084330e-01
3.140914250323313395e-01
2.290018610570483393e-01
2.384342425369756768e-01
3.731105995310315393e-01
2.894697833317516622e-01
7.136284376244111938e-02
3.747370325245245049e-01
2.221653567273113583e-01
1.613687724461296269e-01
3.156666669972312822e-01
5.250043013067910991e-01
5.212459242812739202e-01
5.382396828600961580e-01
1.615710203061331562e-01
3.848498063072530173e-01
2.516165320610477263e-01
7.405033045521661195e-02
2.753671481428271450e-01
4.524919054873555724e-01
3.638383703412197412e-01
5.564959160962679174e-01
3.773435230015591557e-01
1.489586750001386184e+00
1.411080671362688610e-01
3.514778761189019662e-01
2.523328217577027743e-01
7.991109296345143553e-01
4.718202979064155533e-01
1.463927964264042370e-01
3.584481570974863418e-01
2.703243638938020998e-01
3.196745366640068031e-01
1.177785649798007706e-01
1.834876519758849689e+00
2.039004473855188238e-01
6.683912312115175558e-02
1.626744118033980058e-01
1.306448377306096142e-01
1.968683153172932077e-01
2.989120250782600352e-01
6.856355677347221178e-01
2.945433437131695364e-01
1.436280713641955309e-01
1.818377750173842955e-01
2.636355402416767357e-01
5.321357841759577489e-01
2.481994446962689782e-01
3.973131139284878377e-01
3.385935519037394092e-01
1.585668623998083560e-01
2.771596780144224836e-01
2.305613440880692755e-01
3.474708108152694819e-01
1.891839539517389535e-01
3.213193519813631327e-01
2.029985514223755505e-01
2.002799276875071866e-01
2.166704508487549696e-01
2.720796449077647616e-01
2.994974696037779882e-01
2.619001800731809437e-01
3.379581908303566640e-01
8.041660846887929703e-02
7.619617236372598634e-02
1.519729414282223190e-01
1.518475947291249017e-01
2.569926463883902001e-01
4.103263086730106757e-01
3.386305794214229392e-01
1.719372730341920952e-01
4.528380977755358527e-01
1.753450267577401633e-01
1.405736679399593458e-01
3.674342488194280998e-01
1.961763589561748011e-01
2.136087622249024931e-01
2.979457379292428931e-01
3.425457291944478122e-01
5.134515505697256899e-01
2.708038138056586552e-01
1.281153515678883359e-01
3.184201720696580029e-01
2.572689357635785656e-01
1.734154461394627755e-01
8.305369560691411301e-02
3.505247454688076303e-01
8.181603092681399847e-02
4.080655484614222894e-01
1.399686310191141647e-01
2.376041554467436256e-01
1.831493360730960807e-01
3.266086509982168984e-01
2.082749427473453985e-01
4.514236805439591493e-01
1.527220728586080045e-01
2.923840559845241605e-01
3.028691991189281785e-01
2.344913703110232395e-01
1.896594238460275472e-01
2.265440365352931751e-01
1.661522877615784211e-01
3.754684082438686787e-01
2.806700182490247997e+00
3.101633610197814805e-01
3.145220795997285546e-01
1.320698414040931135e-01
1.053983506031606066e-01
3.094374619425918072e-01
7.612770800205272970e-01
2.792794891851244077e-01
3.313853123892191999e-01
2.357964140278745457e-01
2.423828145468020501e-01
2.542735512109640106e-01
2.317171553436030984e-01
1.617014269295483364e-01
1.084312920023150495e-01
2.756390379956770720e-01
2.666007438514730876e-01
1.335907143641668626e-01
1.266010880954964446e-01
1.325318900741904171e-01
3.930097804816560791e-01
1.068317962111579034e+00
4.149822908947751188e-01
3.301382982767347984e-01
1.702894283445718915e-01
2.764199975551222543e-01
2.203160998253713976e-01
5.847267032916933505e-02
8.024638994276032111e-01
2.753038116405026603e-01
2.003466201460493146e-01
3.833286482577822341e-01
2.197873315327520949e-01
4.890779619517039711e-02
2.000429631517376405e-01
3.281222577285267117e-01
3.031238685861444848e-01
1.877023306170910177e-01
5.676557306413859694e-01
2.511349273629711054e-01
3.528100168084356558e-01
2.884597122802454727e-01
1.158077466066172179e-01
3.291617426619955489e-01
3.190112478812605623e-01
9.290774763481909893e-02
2.078101011945000243e-01
5.638061211512044313e-01
6.182667566298504225e-01
7.013959406593369694e-01
3.365808293203331192e-01
1.075378540877250377e-01
7.207637645997126974e-01
9.406683785629799122e-02
5.178163238274827718e-01
1.595353841210903345e-01
7.849109824929928481e-01
3.157274565363175078e-01
3.358984072090592798e-01
2.431248082531588750e+00
3.307659601807633187e-01
3.343006313049075029e-01
2.385815499650451588e-01
6.783558000252944975e-01
2.803698920185746513e-01
3.764929234273972636e-01
3.259412883566426000e-01
1.292641036266244936e-01
2.572781089538292987e-01
4.310739065084944754e-01
1.901669494448261721e+00
1.793469899191329486e-01
1.635800619577590376e-01
4.781697173005882706e-01
1.431742330828502108e-01
2.554938317712649454e-01
1.980244370295952683e-01
1.937153646673042684e-01
1.517676192054749074e-01
1.341122032596286096e-01
2.033250173588805054e-01
1.667979870761847339e-01
6.357079843212840586e-01
6.002330884408912937e-01
2.488319526403317550e-01
2.793171118028354716e-01
7.919817584661038856e-02
6.492086135679731029e-01
2.005434741505097707e-01
3.381154688410815123e-01
1.204908288793838655e-01
1.091252854343454926e-01
1.332544160321119109e-01
8.093586241379757684e-02
1.143549620230273761e-01
2.815221000435407239e-01
7.126552492504487635e-01
5.917633150311181200e-01
1.905923345204171837e-01
1.795681477319335806e-01
3.648029227487467052e-01
5.762908388304177620e+00
6.081004758554623413e-01
1.809832406165889918e-01
5.091678284301815599e-02
2.266064573092669843e-01
1.339119069582961064e-01
1.320133148143736723e-01
5.355686319974647391e-01
3.024074078900279572e-01
4.240981469098441536e-01
3.617870514148145977e-01
3.749699049826046848e-01
2.774403066395459971e-01
1.312038185213117436e-01
3.360782998020154233e-01
2.582002822969338141e-01
1.658584424149979752e-01
3.601203171887067955e-01
2.420544299523406107e-01
2.702031553777368700e-01
3.638079100085923612e-01
6.882572018220954602e-02
3.339372636737836936e-02
2.813707274446408113e-01
4.478696886588016124e-01
4.758457219257561377e-01
3.655236853271113251e-01
1.496464674635370473e-01
1.473326619499278900e-01
6.471690941723086399e-02
2.792195251892186092e-01
2.091820349027590509e-01
1.479112153908959670e-01
3.858550357326894220e-01
1.448529858336065346e-01
1.578800628497292191e-01
4.377283752072722578e-01
4.679267984267423408e-01
1.445327699668494115e-01
1.657187292663940825e-01
5.644323664461702306e-01
2.004270884559825050e-01
7.716588796613640944e-02
4.388780774184649069e-01
2.917653824991484623e-01
3.004058764326936748e-01
1.506483709179718411e-01
1.429778500533054053e-01
6.520536111292294379e-01
2.836746725541138270e-01
2.503369254999086579e-01
2.536321023938412078e-01
1.700645153403014809e-01
1.586800910273424292e-01
2.705004145798744486e-01
1.255584039487717685e-01
1.139923813068309116e-01
1.335919260502536621e-01
2.526571548627719599e-01
3.119815053004819649e-01
2.627209677755875661e-01
2.747498416296331736e-01
4.779695088615520393e-01
8.353525867228951685e-02
8.509330276547584226e-01
4.256503677126244889e-01
1.856482569460487786e-01
1.877443670776820228e-01
6.115518804043444945e-01
2.318782748844641084e-01
1.600484669593577602e-01
1.123856273591463117e-01
3.063883815995029347e-01
3.079736925209447529e-01
2.286558128024680503e-01
2.022698397250499713e-01
1.689771641871261609e-01
1.637180330103301384e-01
1.460905159889362148e-01
4.896264304747871554e-01
3.456903038380884086e-01
9.460171292102427520e-02
7.882750745242855794e-02
1.041442461126049629e-01
3.782095551234779252e-01
7.355524018229950833e-01
1.165001344199592948e-01
3.188834485507061611e-01
2.091862046227149774e-01
1.304503675791726658e-01
1.123391596293586980e-01
1.776467696828593068e-01
1.103572506371654216e-01
6.653999921673606210e-02
6.886448293959783751e-01
1.906523859990568448e-01
1.819889516696230336e-01
3.116697940099873443e-01
9.438000762767190244e-01
3.570696234975753725e-01
1.544283053132508299e-01
3.306682096883917232e-01
2.236014400681285430e-01
3.007990550871261215e-01
3.880845243100922715e-01
1.417504075963720855e-01
4.412013002128016836e-01
6.983195252597268476e-02
2.930554536237536256e-01
1.467578066784716306e-01
4.187316523044990468e-01
3.260484228689712327e-01
4.516799061786786612e-02
2.872667141388675627e-01
2.934832298068116296e-01
1.644108406404939937e-01
1.936681428693647899e-01
4.090407728259822240e-01
2.941063310221057603e-01
2.993321950981767121e-01
1.479405033251356971e-01
1.063838890559159478e-01
1.759045195325191491e-01
6.078146895759799495e-01
4.145292083866660149e-01
4.600344385439777417e-01
1.927112039495447460e-01
5.664914963466601838e-01
2.140026072776258226e-01
3.190411431562235611e-01
1.883738185329723036e-01
2.898207470471181879e-01
2.950815854809115679e-01
1.418411107487251299e-01
5.579942084515924217e-01
5.190073589739748749e-01
4.009942922750370786e-01
1.593397616367029646e-01
1.072423649560073772e-01
4.634184329925833956e-01
3.246685753479228165e-01
4.367074520079424760e-01
3.370956063870255148e-01
1.397945669258847945e-01
1.166715113815425114e-01
4.103467652166913893e-01
2.434939760746796245e-01
3.849877142221456161e-01
5.948983584828874127e-01
1.247978948117362541e-01
3.156521064089544137e-01
5.471237040393159834e-01
2.934162850802640721e-01
6.524075152926632759e-01
4.995310490364494593e-01
7.556428860369535094e-01
3.870022266131208921e-01
5.265063901505879773e-01
2.652280640671395018e-01
2.114931099642930190e-01
2.096742850040518302e-01
1.180103698752407171e-01
1.937177220242356779e-01
2.736226619227732915e-01
1.832565425466222142e-01
1.480437018639643165e-01
1.862706327751965374e-01
1.895139012706942017e-01
1.619195138056531702e-01
3.366919587455111662e-01
4.503712863174304526e-01
3.568196462574434458e-01
3.042741037105369251e-01
2.887769244981666095e-01
1.944909005871986174e-01
4.753891183985063384e-01
3.631951181616868141e-01
6.947970390967536103e-01
3.811700653984421705e-01
2.278736302169063477e-01
1.474233815617095877e-01
1.007028289120145276e-01
8.516200029661395721e-02
2.293035664403522134e-01
1.458684081475685734e-01
3.498186887321731997e-01
9.811422087489803934e-01
2.881739227403883330e-01
6.631445153527670833e-01
1.640939597210516188e-01
6.548614875734960483e-01
3.484743382678966994e-01
6.946135021755203143e-01
1.665917305382004776e-01
4.199448480373670911e-01
2.663982279938013065e-01
1.104410037986229554e-01
2.510125495570245668e-01
3.545699245762760077e-01
5.060006292939722705e-01
6.513417712135443072e-01
1.877505808336180360e-01
1.986106358647510006e-01
7.838070367718355524e-02
3.536191756255633312e-01
1.746532324930058777e-01
2.035951391703081370e-01
1.435508296417705165e-01
2.884640614805091818e-01
2.168085887520653510e-01
2.135223009505028413e-01
2.705091840750023513e-01
3.198951379624821456e-01
1.978335309527748387e-01
1.583690622972715012e+00
1.153869507730898025e-01
3.947949376285251333e-01
3.030485090960793881e-01
3.606184615236339708e-01
1.029906865660943499e-01
1.627681344001875308e-01
1.727849333220090322e-01
1.241866391148173654e-01
3.453731861733005393e-01
1.530532449682610596e-01
2.728150514803923676e-01
2.540842891166552042e-01
1.369330715603479243e-01
5.229284879112483519e-01
3.969672855095346398e-01
4.209163962543517323e-01
1.107768056882624252e-01
5.756832412273585886e-01
4.555566561232922695e-01
1.035394965569753634e-01
6.185691731336330212e-01
3.607321881895586002e-01
1.877562376738305117e-01
7.466439307031016992e-02
1.191695385793562073e-01
5.997585384627024396e-01
1.035254187104074630e-01
3.346313506857393483e-01
2.166990949409989542e-01
2.123615334816045253e-01
2.071386894215018482e-01
2.540787503300370731e-01
2.506983753726160780e-01
5.683045826029398118e-01
2.710727954053946953e-01
1.957141429394363974e-01
2.307947547394704479e-01
1.322043425797930771e-01
3.628019514347724517e-01
5.269823132453755887e-01
1.836293947848879893e-01
2.056644719224627882e-01
5.932680718486399440e-01
2.112229997170789741e-01
1.752870463469946016e-01
2.341009331581204445e-01
3.519861755946913640e-01
2.379435848864721870e-01
3.022821224013126917e-01
1.525688055815315747e-01
2.551011040901979832e-01
2.652579626321278083e-01
5.404999796124189404e-02
4.182859735091261077e-01
3.393572180066385391e-01
2.473996837679640348e-01
1.935638502108627257e-01
3.900423642711949856e-01
1.736931109492759751e-01
8.991159790428442378e-01
2.375871117115107012e-01
4.293987472199437549e-01
2.098995364822394960e-01
2.819732108482017052e-01
1.400965907626995355e-01
3.066586806434635770e-01
6.118546926368745309e-01
1.383941254862008086e-01
2.309805284282993310e-01
1.494890171178268057e-01
2.944210131993122426e-01
4.050773922551065276e-01
2.802933972684042430e-01
2.817390796882209281e-01
2.331416534772447480e-01
1.085247272750517744e-01
1.851938700072311983e-01
1.479140594201995840e-01
3.240625448391682428e-01
1.735371994364195147e-01
2.544159524669035721e-01
2.749010735520216464e-01
2.190267183506695858e-01
3.845068966928948395e-01
8.297684466458029595e-01
2.537273108358605866e-01
2.550719810011483624e-01
5.671450932673907097e-01
2.003143120831543667e-01
5.856016911229666722e-01
4.851688229272201891e-01
3.268238704065390410e-01
3.228135523819881114e-01
1.392135088791754960e-01
2.172222193457995498e-01
2.590151376932081639e-01
3.462098441809506877e-01
2.887869881652406767e-01
1.894685954202607325e-01
4.468220291601999183e-01
2.889825757367689429e-01
2.474171996040309129e-01
2.611571466240277806e-01
4.085875668314571385e-01
1.766334500520818085e-01
2.308893271886691412e-01
1.232195363069568395e-01
1.879949121518614541e-01
1.658333297330883416e-01
1.176492426740407132e-01
1.768407627584997477e-01
1.998247721026188417e-01
3.441622057954643599e-01
6.201266483508245386e-01
1.035456732892202192e+00
4.627891675152668860e-01
9.811860644556756605e-02
1.606203681264407046e-01
1.994691388021252454e-01
4.371606671435613878e-01
1.757078768759645360e-01
2.072870813892996877e-01
1.948293254392090557e-01
1.423528381106912988e-01
1.855413580316266908e-01
2.368700577167416332e-01
1.680737349070356434e-01
2.336608026980546704e-01
1.908187309455150193e-01
3.489654211310546095e-01
2.826090113770048928e-01
5.783583568373935613e-01
4.540174917408213440e-01
2.286853199125477021e-01
1.864590687301591054e-01
2.669276439690785319e-01
2.514265906181246679e-01
2.040230539348980576e-01
6.742394290352193842e-01
2.996004986787509372e-01
4.140576534797920649e-01
5.386465377652898123e-01
2.189161368071081970e-01
1.268613878493916602e-01
2.309115187575623007e-01
5.092884120159169026e-01
2.264169172320592560e-01
4.298846636655583309e-01
5.341105309004358093e-01
6.797863864834863268e-01
3.992751976268872904e-01
1.644823051699674799e-01
2.299897554112341758e-01
1.706689887387960458e-01
2.135863922312701557e-01
1.328108589365130376e-01
1.514736622825307855e-01
3.045001954558265722e-01
1.650690177727222596e-01
3.760085326801410055e-01
1.830148067347039942e-01
1.023913532376204971e-01
2.073216257910385218e-01
2.714452056475322173e-01
1.669009126898589046e-01
1.759789083438750568e-01
2.786065943147617019e-01
3.322499695250540341e-01
1.131977175859812529e-01
5.256482303961587110e-01
1.765334182089265402e-01
1.429058429080992676e-01
2.263605482014032222e-01
1.839404100065564207e-01
1.542953349131914731e-01
1.210032381539653396e-01
5.939943289330670284e-01
1.379967601512366582e-01
3.527834557722547282e-01
3.982334686523974487e-01
4.148884304429726888e-01
2.062641352223592850e-01
2.267482534381102532e-01
2.248957390567142944e+00
1.699807094793415740e-01
1.770920742489401067e-01
1.803635200929594729e-01
3.293593667943135461e-01
4.061854534260861960e-01
3.775470817814715607e-01
3.806436377088004974e-01
5.828245287365130256e-02
1.994512265005258245e-01
1.292929358986956156e+00
2.560070661797897995e-01
3.753949356454282515e-01
2.704957173511466362e-01
1.773365243541332736e-01
3.122468310989735540e-01
4.051366971891663393e-01
2.021877685098148192e-01
1.940119582717705626e-01
1.509286124069743051e-01
3.049452170703124687e-01
1.210258882481922704e-01
8.571247050675745438e-02
2.081465816668619795e-01
9.869563378921250574e-02
8.934016752912114778e-02
2.930108896974342736e-01
4.025479893187375868e-01
2.217712083193006389e-01
5.659795581128104214e-01
3.050448193935294539e-01
3.263946034627601689e-01
4.544513367600239162e-01
2.327833510849492138e-01
2.758120480639627559e-01
1.053880462039517019e+00
2.051151284371805494e-01
1.408008104569292429e-01
2.309095850054192767e-01
2.616332489008038054e-01
2.482126838984782680e+01
1.457853360427173450e-01
2.356520819458949589e-01
2.386624425404335059e-01
2.338062132992128894e-01
8.864185796814567642e-01
3.976990601700641781e-01
1.822784012189233027e-01
1.604469983899911578e-01
1.902316308809721690e-01
1.770173000167921951e-01
2.874848437677234858e-01
3.996244334058076664e-01
3.776155270156744126e-01
8.561740912628057476e-02
1.723144052802712267e-01
5.379140528149543854e-02
2.033311276964680503e-01
3.366642200456074763e-01
3.057498273867760297e-01
3.266163735437266902e-01
3.155141851618805116e-01
1.407765916275910412e-01
4.050942538799006121e-01
2.484866704287105876e-01
1.082343268245066215e-01
1.968280562905104780e-01
4.312764919942382869e-01
7.480619728704497595e-02
8.350726155884942159e-01
3.010039712538936651e-01
1.540884786168988940e-01
1.555450476488000611e-01
8.135326985274568545e-02
2.958419800158794688e-01
2.079294870420489993e-01
4.741396187386238692e-01
2.816587039534670378e-01
1.661847339480203856e-01
2.226175520244330353e-01
1.979497378049406009e-01
2.296819155688276382e-01
2.403292068358897082e-01
2.436002891205190091e-01
4.253727428856128312e-01
7.623981452782545298e-02
8.369422892668193503e-01
5.634030695049982995e-01
5.465184978434407537e-01
2.865960059520940018e-01
3.062126823990148350e-01
2.357200336047277633e-01
1.889822209585865775e-01
1.580575633304188710e-01
2.133177396987893104e-01
1.202059167215251689e-01
4.034591500179834922e-01
1.818826031636143203e-01
1.396179474411828603e-01
3.616034704341454797e-01
2.471741996094620752e-01
1.117632372505115573e-01
1.568096434501712877e-01
2.700772712126714437e-01
2.767124834168677716e-01
4.307329406210479439e-01
1.150840520094217334e-01
5.428850580272363002e-01
3.279969502524046066e-01
2.114867030687906102e-01
1.430474943531713228e-01
3.017805273295753876e-01
1.553758687914911785e-01
4.042714569106697908e-01
3.018135891080836464e-01
1.796116124018682370e-01
3.770854058110652551e-01
3.511897781661540430e-01
2.435175111632063571e-01
2.382931513203328522e-01
1.880281605356305397e-01
4.074565997101627368e-01
2.908508699640630080e-01
6.282880976513817162e-01
1.914623790925133462e-01
1.451266024692701440e-01
3.946661753315519605e-01
4.805500001925971931e-01
5.703334497535614278e-02
3.156158981988089196e-01
9.093163788812486104e-02
8.145053770600568788e-02
1.260913374867777548e-01
1.170878524928751774e-01
4.223433821109613684e-02
8.850600899628553730e-02
2.323909009676105031e-01
2.310277443270104536e-01
2.503527684095405714e-01
4.978262577838382108e-01
7.396454496332571793e-01
1.726444227602826897e-01
3.272695530994711444e-01
1.656829958686352744e-01
2.650810914482849556e-01
5.399926083782331798e-02
2.114096357667333836e-01
2.423484829575515698e-01
1.991538397131021321e-01
1.867047744112475538e-01
1.687049542368646571e-01
1.695265976107457884e-01
2.956102424598162637e-01
1.895722009493240323e-01
4.717231140837020442e-01
3.315419347281313711e-01
7.321272290387732529e-01
3.150965183784987800e-01
3.307243973636452838e-01
6.649456003625914269e-02
4.258287201407232048e-01
1.372924947542731589e-01
2.240173909648764394e-01
2.290664509931728543e-01
2.484622014207462648e-01
1.847957904596214951e-01
5.416488029072730193e-01
3.415105206635493107e-01
2.260125767629286853e-01
3.705615658796445611e-01
8.939506335831678974e-02
2.159918427786137185e-01
1.838267485745261887e-01
1.028176826378187497e-01
1.222504817756187717e-01
4.099693307223497563e-01
1.221505336174877776e+00
4.055793479093544596e-01
2.038562943929216886e-01
3.655067093848565207e-01
2.570639357996917784e-01
5.668371635693983390e-02
1.041455693235810026e-01
2.627855996816823025e-01
4.443627787674354068e-01
1.905366018814834972e-01
3.666026064797421880e-01
4.385189765777953719e-01
1.652946811217215484e-01
4.489978928338560493e-01
3.076288928840796855e-01
2.513949465777900460e-01
3.334197668812262649e-01
3.982652280815616730e-01
3.429173408200983930e-01
3.202419231770132213e-01
3.137479263631463566e-01
2.148134386098729809e-01
4.355762445197159938e-01
4.337432349053989000e-01
2.119019018332168325e-01
1.973489785057222501e-01
2.037332561834320765e-01
2.416299890166862530e-01
9.519607690416034829e-02
8.546580622451110942e-02
7.182526729863793202e-02
1.704471749219837184e-01
3.848922316865675541e-01
4.540207562506946015e-01
1.921817049336323191e-01
1.375175633103223050e-01
2.137014248908034597e-01
2.483940686703918765e-01
3.592079865464934407e-01
2.297436333744654890e-01
4.615591714445811400e-01
2.869075370066044295e-01
2.585599660116441045e-01
1.174771353503524240e-01
1.436677587707161641e-01
5.869594533829233240e-01
3.491229683108108550e-01
7.671140534018676405e-02
1.710126561415596380e-01
1.681535070275505805e-01
9.401490023835981646e-02
1.252507580488090577e-01
2.130271720815926639e-01
1.939592144795491413e-01
2.182135747432339679e-01
2.156293364809744872e-01
4.127100389381512247e-01
1.832662696963971161e-01
1.713571625381716812e-01
2.421105981067673274e-01
1.513516297784136821e-01
3.347886294446184019e-01
2.915174717379353519e-01
1.833408310009894127e-01
1.650114289695178149e-01
4.826128294935387864e-01
4.896668619591779681e-01
1.177427222936603124e-01
1.642455286319312036e-01
2.348937751232193505e-01
2.289364021597374566e-01
3.176359198801261829e-01
5.736357453232338727e-02
1.667931729036968569e-01
2.111473564949830628e-01
3.256303266777563765e-01
3.992097822821009112e-01
9.841497074939561940e-02
4.032231818990421324e-02
3.074177672572382947e-01
2.898074772836025104e-01
3.060566953586758010e-01
1.408686775266826952e-01
1.311334308488521783e-01
2.318563197935495368e-01
3.587534600361668713e-01
2.196729839178381272e-01
1.596216673971392885e-01
1.973319020676244095e-01
2.151972244101043041e-01
2.587686626019191152e-02
1.236276015546461104e-01
3.182872917994500339e-01
2.576341606794608774e-01
2.870311964391389914e-01
4.107399793591149928e-01
2.090961642970305401e-01
3.288697509532469976e-01
1.972996813503790636e-01
2.387800779193745560e-01
2.944625525232493768e-01
1.864494193711385694e-01
5.009300101330259603e-01
3.496908206283414478e-01
1.167583762277974446e-01
2.702817206325017763e-01
2.528605893097503055e-01
1.472700576443523868e-01
2.937897202743607328e-01
2.846028449748644329e-01
3.032282590545876122e-01
2.705283048957513037e-01
1.910565339666594198e-01
1.450868652186933505e-01
8.362431175886546608e-01
1.976544124007796333e-01
3.858912872230364499e-01
3.546006083459507519e-01
1.714786329522671737e-01
2.947484029503634195e-01
3.478760336753443094e-01
4.168499151076633380e-01
2.604329404805579840e-01
2.898253388789485685e-01
5.779511595322458506e-01
1.978278999843733621e-01
3.332258299144198049e-02
1.598344800639769359e-01
1.158632194979359320e-01
7.526805561841339032e-02
3.337707487545983898e-01
3.199914650483950407e-01
3.898124552253776631e-01
4.308711431009533133e-01
6.395403058907518368e-01
3.832528194341062316e-02
3.116878495861796772e-02
3.692188460251596416e-01
2.905789423653790671e-01
9.211986489771134545e-02
3.052524340240167500e-01
9.072736591232446468e-01
1.124796603100617076e-01
4.931044824855408404e-01
4.597698843815977710e-01
3.028209720067004951e-01
1.685498656243246796e+00
9.772282133629994760e-02
1.985905603483480719e-01
4.986145306906150099e-01
3.327823555676622802e-01
2.814348243106096770e-01
3.583742785771075190e-01
6.984815937885273662e-01
1.472389289481453867e-01
3.036981375764767274e-02
1.438977955914404194e-01
9.150160683974062348e-02
2.155131429426703493e-01
1.138659533752857667e-01
3.290037943837501588e-01
7.115925874897179870e-01
9.275011999798793427e-01
2.101079430871001796e-01
2.746236016571363958e-01
2.514358519212788745e-01
1.700217368121074157e-01
5.106494753165660150e-01
1.997378897624341731e-01
3.519464436295682841e-01
1.615696660895805103e-01
6.648020356379967799e-01
1.792902458456879511e-01
2.164887994442925845e-01
3.378758064462736299e-01
4.960720220610869147e-01
3.384637713012289550e-01
4.210495680293931120e-02
3.447083952481949098e-01
7.392495793854791941e-02
3.204396728024436758e-01
1.707045115395268431e-01
2.623304699063704892e-01
3.084001134838797453e-01
2.892555191851368113e-01
3.376163282166086965e-01
1.435731656357122077e-01
1.646826300559862954e-01
1.790003184136223779e-01
5.961621135410537925e-02
1.649168445731453436e-01
3.452377310503467744e-01
2.811040171354564077e-01
1.193899385960729143e-01
2.285965787224479295e-01
1.314741612809757765e-01
4.182709081977381560e-01
1.614246266212329695e-01
5.544347856385661855e-01
1.415276588381855771e-01
3.029043915675570520e-01
1.062901721828089507e-01
1.321960425768858305e-01
2.007989357002957498e-01
1.160334977838094334e-01
2.575518527225362231e-01
3.390786615723844211e-01
2.562520088776317206e-01
2.163183124891580322e-01
1.361326898678527630e-01
3.626995841664259479e-01
2.429861179240556113e-01
1.483330294563236784e-01
7.486295913059060059e-02
3.037261306364872349e-01
1.826236606154680864e-01
3.972872743752564606e-01
8.604596218104144933e-02
1.149870206110742699e-01
1.603017889327720547e-01
5.224847243792186680e-01
4.369888810596699313e-01
2.127976028813276521e-01
3.072752507947711376e-01
2.663583029817728764e-01
5.175607134737282289e-01
7.818084573683588279e-02
1.828361693272027300e-01
1.404355173042305116e-01
1.628351768437557023e-01
2.617544762991524943e-01
1.896947568392133854e-01
2.139281190322362136e-01
3.600297778604577004e-01
2.432201807836451013e-01
1.743093942579805322e-01
1.140749353553741352e-01
1.329735358410651103e-01
2.449864143354347767e-01
1.105319356400721181e-01
2.083004478030300866e-01
2.530782349899423078e-01
2.388444983269452093e-01
4.243040139975702840e-01
3.115567727688050015e-01
8.202414983345839017e-02
1.929005249614632878e-01
3.167282093705508506e-01
3.862634451645404754e-01
2.518678988531897756e-01
3.004095744905999066e-01
1.205174259265899606e+00
4.486507086284818868e-01
4.684707163778288885e-01
2.447348048312069091e-01
1.505680250733194003e-01
1.767150606929039913e-01
1.885149816814035151e-01
1.623450061910043929e-01
7.468838873956092084e-02
1.910633945801417100e-01
1.720564464923015069e-01
1.793922935799319163e-01
1.722831123494288907e-01
5.623357433397727645e-01
3.937442746951534400e-01
2.661883368464318944e-01
3.159696570913346214e-01
1.387405047199592734e-01
5.071248533424801419e-01
5.303099602489074194e-01
8.942770861832854967e-02
2.783080390059819997e-01
2.845655155599512431e-01
3.758847743143715614e-01
3.914061021197475787e-01
1.836109766204992166e-01
7.928606508465876890e-02
2.664108268589727713e-01
4.940399712138505151e-01
5.268463960815787939e-01
3.527023230847396995e-01
4.799216130522896417e-01
2.538465130140572512e-01
3.000084655267591383e-01
2.619049023939648002e-01
2.101386326832901108e-01
2.362551559440874416e-01
2.371012145767891766e-01
2.941035588530998002e-01
7.244259917119765246e-01
1.279642969032854516e-01
1.409932105551758297e-01
3.639974662102159475e-01
2.338922309890163476e-01
3.193592588922806730e-01
4.194462126288461268e-01
2.665628753110770299e-01
2.395503243530238968e-01
2.115555567409388993e-01
2.107174506548659676e-01
9.091756532066197494e-01
1.709122832646552959e-01
2.310656632393385812e-01
4.244553188262490950e-01
2.924468025502635071e-01
3.499591794347187701e-01
9.048952645895732561e-01
4.941108557533298029e-01
3.244845052690755183e-01
2.277623569433971928e-01
7.128849901717990711e-01
3.214966083073094172e-01
3.652356429678857430e-01
8.206324792872372598e-01
3.049031334364020185e-01
1.957345611457726176e-01
4.170865382683014988e-01
2.132947346580539028e-01
2.143399950792431174e-01
1.169486356836590968e-01
3.432685229651384340e-01
2.490938435584204858e-01
7.658824796553482805e-01
3.811109045482046209e-01
4.834600584219801434e-01
3.047538120041932141e-01
1.075438480422514331e+00
9.279950811953020795e-02
4.664815240665291185e+00
4.654510821587593550e-01
6.858310806512149860e+00
1.448043420783982349e-01
2.110685334992506434e-01
1.609112517975689050e-01
4.550446560963399834e-01
1.529933699607268216e-01
3.564536816588088630e-01
1.104568045226958090e-01
2.226687338841470964e-01
4.845195683685309951e-01
3.486241242039683774e-01
2.752211621836624378e-01
4.870900173083688167e-01
2.111087619678202643e+01
1.225435156041869839e-01
7.663301339807571111e-02
5.123676424059484535e-01
1.834703047289831523e-01
2.699777414776998175e-01
2.861404848674914958e-01
1.656887342810786201e+00
1.285838749829351646e-01
2.833335061115412334e-01
6.323417496776242430e-01
1.747246883230852421e-01
2.366030896933210004e-01
2.180804292568508662e-01
3.626853084487829948e-01
3.695620317889193318e-01
1.092110676341752767e-01
2.234831690705008922e-01
2.040276890719033287e-01
2.641589034252903589e-01
8.495801609552676437e-02
3.149821721881160830e-01
1.409872596208335549e-01
1.244746468241732518e-01
6.998374817665947711e-02
1.448183396044324112e-01
2.169174840509360269e-01
2.337782074119786335e-01
3.307687783617861421e-01
2.468288153245028760e-01
4.749059433289709586e-01
5.965580223083587486e-01
4.523996543614740018e-01
2.451420500374235090e-01
1.675068117426347092e-01
1.539691840129308598e-01
1.162429443868667478e-01
2.445007190366128014e-01
6.009620671985312912e-01
4.151947014517551882e-01
3.842015801860650948e-01
9.767178329868725362e-02
3.453354854068465540e-01
3.444823789322188912e-01
3.460135220831643266e-01
1.129532305878628295e-01
1.104687285204915131e-01
2.377121586873060521e-01
2.416674451949838986e-01
4.831767857264731014e-01
3.427599670710278490e-01
2.008129395693757091e-01
1.593903329029898730e-01
6.451916681524411112e-02
1.021010263142652086e-01
9.737334550230522523e-02
3.987094757668686595e-01
7.745492112105599736e-01
3.117087617485497231e-01
1.538477670164804800e-01
2.640277678449724497e-01
3.638047858982200733e-01
2.463476784523947472e-01
1.235856593413042770e-01
1.494326544443882188e-01
3.108636955750476161e-01
2.518556937139719842e-01
4.137905469618635146e-01
2.006257899541324663e-01
2.431367235953571515e-01
2.828645166463265026e-01
2.588567006127174830e-01
3.064978715074430093e-01
4.528518368068714661e-01
9.130765532070947432e-02
3.186104869632142012e-01
1.332708318723770380e-01
6.076305239379286016e-01
3.379107830715225025e-01
2.277157013278964248e-01
1.773812507327239274e-01
3.710165393164269187e-01
2.930870196675821604e-01
6.272485185350332171e-02
2.400223652679950859e-01
1.771824391001854959e-01
3.553020298423771872e-01
1.155335423700811770e-01
4.547984994910480028e-01
1.867992837535664141e-01
2.144857373206379703e-01
2.107354929232328755e-01
1.300422566272906588e-01
9.598763902610971122e-02
1.025262781559631575e-01
3.383761540128450013e-02
3.439071786511389561e-01
3.186976041879540644e-01
3.134213812512557373e-01
2.841274721278315152e-01
1.646425040706840370e-01
3.149906563191074982e-01
3.735241169478564771e-01
2.883463083789518655e-01
1.404431210838937294e-01
2.127821278475503786e-01
1.213782622487309670e-01
9.276233563667110604e-02
3.713033417965421190e-01
2.108339939975711619e-01
9.678022735466680626e-02
4.674002487731707123e-01
3.897124036533116537e-02
2.807265719491123246e-01
1.983430679158630638e-01
4.979879367010345836e-01
1.280445363251817847e-01
3.653017966600899946e-01
3.995901868592819373e-01
1.319699556456179756e-01
1.622073537989263681e-01
8.699926591368393192e-01
2.162678276448342651e-01
6.986004029830748807e-02
9.382690095356424620e-02
3.280990145640009237e-01
3.623199632081127164e-01
3.953995905993308302e-01
2.765294453548525211e-01
6.679018024069043047e-02
2.874313931164167446e-01
5.433969978418324853e-01
1.561260426550937219e-01
1.790756219433641272e-01
3.969899570388628340e-02
4.161528606721228707e-01
1.151407850123533777e-01
2.467774208165276206e-01
3.982639967363352795e-01
2.849706677690894696e-01
6.277742316328499550e-01
2.438671394166672113e-01
2.341343899391107597e-01
5.507547597214411672e-01
4.438795588848676310e-01
1.081314910410976216e-01
2.495836817623805270e+00
2.044646034316464356e-01
2.232272122658105207e-01
1.906398804467478170e-01
1.808915918739603113e-01
2.738279148650020201e-01
8.527464488226244033e-02
3.339476206008673009e-01
4.636514502489383904e-01
2.250151041724281487e-01
1.955309669181211907e-01
2.750866865814158291e-01
2.516699243292169763e-01
1.660528665990406438e-01
5.530743716915703656e-01
2.779286629395656960e-01
1.465521078089296325e-01
1.603561537845573093e-01
3.144627159448896148e-01
2.537509360167558570e-01
1.893982865717931952e-01
3.401088160549606831e-01
3.331000111635896710e-01
3.903412364960761605e-01
1.724073198577253940e-01
3.000452243141635833e-01
2.543523767901589294e-01
1.919960448564266287e-01
3.420733915997813401e-01
1.352666180308280675e-01
3.062707555067139542e-01
1.254744391124091030e-01
1.148539555734256756e-01
3.997620511833074319e-01
1.259738819205473703e-01
3.465196087049685625e-01
2.886770521056124528e-01
2.150863924381364312e-01
3.586090109563863093e-01
1.830006293046994581e-01
2.659920595020037193e-01
1.942766631302543512e-01
1.459906682036428427e-01
3.913718909192180906e-01
3.566005982109902717e-01
7.031606809426451665e-01
8.359447662170385596e-02
2.351815627924379037e-01
2.213857502613106321e-01
2.242294898739629616e-01
2.114436807689837605e-01
2.993390599705309518e-01
2.601482533681262477e-01
1.592426316363197980e-01
1.615545493861390569e-01
1.710805545769383540e-01
2.207904975014191584e-01
1.856899209936240802e-01
2.348600655543376936e-01
7.610796049680710329e-01
2.474748471019880269e-01
4.060628732442988498e-01
2.244882164571751215e-01
2.384472086317428463e-01
4.834788532658106375e-01
1.896620694229769755e-01
5.872153459568560940e-01
1.263680796774162007e-01
1.617011929649439517e-01
1.489160837058037534e-01
3.259181775826990313e-01
6.985327234879454839e-01
1.099845669635723389e-01
2.037386152280800666e-01
2.385203876362664011e-01
4.400731300024266490e-01
1.837390849738320953e-01
1.892129706629892549e-01
1.365620078073972177e-01
2.440646404713793238e-01
1.037920731813322950e-01
2.587747334919615616e-01
1.447957954959798454e-01
2.290280859315551032e-01
3.725707405884626233e-01
2.812742555651582821e-01
3.495900593706272597e-01
1.477238109253974085e-01
2.644522693859538975e-01
1.103174947317558385e-01
1.646750755917507358e-01
3.135794249353545116e-01
6.488071422012298139e-02
2.039316185928460867e-01
4.667843672805927491e-01
7.824535731392770477e-02
1.205958595536103517e-01
1.783487848253807462e-01
2.106053974417826935e-01
1.191968727149286811e-01
1.438894023142201495e-01
4.231244162968309519e-01
5.884482143236099277e-02
8.206720434130178321e-02
1.896250350173675492e-01
2.665213592669820608e-01
1.109365418858653390e-01
1.624533929418354727e-01
5.849616648525340912e-01
8.461463048785874963e-02
2.480345783069060617e-01
2.145492455072413041e-01
3.183843542856651387e-01
3.810145647818833359e-01
1.476430460014160062e-01
2.997081972647707704e-01
1.647303239615636739e-01
1.265448859980330409e-01
1.500559483052891496e-01
1.732887108785888530e-01
2.152009337373344544e-01
1.768473409145883135e-01
2.226743388960130410e-01
1.646376765361153294e-01
2.911482557004280158e-01
1.188166428856156503e-01
3.080978903044848116e-01
1.773438228819124718e-01
2.795544661620643634e-01
6.704178840223895541e-02
2.534972023914155992e-01
3.005337537196956510e-01
2.980555749215355044e-01
2.674355262838425396e-01
3.574739909286221429e-01
1.500692144963538255e-01
3.082881835865955433e-01
1.502507989271420485e-01
9.197288320620079782e-02
1.256663824843027299e-01
1.271010719088556673e-01
3.399091328830410319e-01
3.076535927803117909e-01
2.418603802463877295e-01
1.267729375776275758e+00
2.769431110123584672e-01
1.684503367684278829e-01
7.134632539309652965e-02
1.308873414611894936e-01
6.843570426536829676e-02
4.478815565412748445e-02
2.133558447073592712e-01
1.594140374552512340e-01
4.103639331396231604e-01
4.446814693765376303e-01
3.078019609885919161e-01
2.060433364487197494e-01
1.697930529768502672e-01
8.879142208561283667e-01
4.911298644813867909e-01
1.046810160038991050e-01
3.807970047294026994e-01
3.132318785185976839e-01
2.747198383626824336e-01
1.971525422539168182e-01
2.487386564599995964e-01
1.715413466704661660e-01
3.291331668319045223e-01
2.056849038679601505e-01
3.270095466426866659e-01
8.408641213388000635e-01
3.207734897522044326e-01
3.452892581899245084e-01
2.426486567378288717e-01
2.323924388969765831e-01
2.984474860387313355e-01
1.657127748267488432e-01
1.936332089619324515e-01
3.344313218243148422e-01
3.339338676792942828e-01
1.921001950839739403e-01
6.846325557854382460e-01
5.534995091700773973e-01
1.592491171959877494e-01
1.826013798456324888e-01
9.138337313964647879e-02
3.482395196539424531e-01
8.794647068828437275e-02
1.797195293309308273e-01
2.748050637236845728e-01
5.172691127105748243e-02
2.243727395750609865e-01
2.322644032314569174e-01
1.701515536545807061e-01
1.411251282320257427e+00
2.908979463879962091e-01
2.433611762558479941e-01
1.931612583060278721e-01
2.087311040793413952e-01
1.134785852370404635e-01
1.098010065683322212e-01
4.411344368145766470e-01
7.987469299763226560e-02
1.916527954664715983e-01
1.739442292825357783e-01
2.344829757247452739e-01
2.167780541797798000e-01
2.320883404288694718e-01
4.637070329379676670e-01
2.396922048783041159e-01
8.805033807898363096e-02
1.347542954266215398e-01
1.394156008803100200e-01
2.991428017767651659e-01
7.571165236735191706e-02
1.201006803564237529e-01
2.183883553105598341e-01
2.090722829003862082e-01
3.100099837914735423e-01
1.361029885511785831e-01
1.041193789408057652e-01
2.711899162895795024e-01
4.718410973645349449e-01
1.830582325854465786e+00
1.045561561741084888e-01
1.898134891685316072e-01
5.818110306087086875e-02
1.674507295309537180e-01
3.204167192758865246e-02
3.432421233347778267e-01
1.921797153099811806e-01
7.048833685906148450e-01
2.384374048881666430e-01
1.165268711388681988e-01
2.203358166578519572e-01
1.125768366177773844e-01
1.719121730001952342e-01
4.390816763498217590e-01
1.443421405100900057e-01
8.972173959078064143e-02
2.947175881892631910e-01
1.710909917804643021e-01
4.813217600948005992e-01
3.408623587788278675e-01
1.552664784756366823e-01
4.184801225160129645e-01
3.821014663616927320e-01
4.305760056931839941e-01
2.432425278418587911e-01
2.027620050064035395e-01
3.522718735346661023e-01
2.299251896100950043e-01
2.797996604209718186e-01
2.921399809085729882e-02
2.862585403659658745e-01
2.344119824392718043e-01
1.618755901852891033e-01
1.015838296316895262e+00
2.080970167226578460e-01
3.728671503652637997e-01
4.043799954349848735e-01
4.737800076144468298e-01
2.286034336613059770e-01
2.367092868458345600e-01
4.843354419121040921e-01
1.343469229532419651e-01
2.617664728066532720e-01
2.256515074352455907e-01
2.665164162047922725e-01
2.591657491281434411e-01
2.120459305308462494e-01
1.243743048920145089e+00
9.720431903557866238e-02
3.588896986811130896e-01
4.167116058696705982e-01
3.259774964579993384e-01
3.716808092910857675e-01
6.461140393668486359e-01
2.368413602980724009e-01
1.395875400485286910e-01
1.042199713209799594e-01
5.534117612321761692e-01
1.436413273586691353e-01
3.273380575052100561e-01
8.626448925147117697e-02
1.401525631605747002e-01
3.306047796353606127e-01
5.308009417609298453e-01
3.909435577747935597e-01
4.268766234855599917e-01
7.042791175712310725e-01
1.576817063898580396e-01
