2.001938662793835699e-01
2.764983619071401111e-01
3.739839932091438834e-01
1.697901847508534456e-01
1.887125911507198661e-01
1.195883170118327843e-01
1.114428304769592010e-01
1.226119215699248283e-01
1.969502480192701910e-01
9.747936974471849148e-02
2.779286863245829520e-01
2.561166917727535353e-01
4.073892384949375778e-01
2.209679994705005257e-01
9.090403948792660782e-02
9.096966229623046352e-02
2.831048788010426809e-01
3.960119574345112858e-01
2.921797998507931760e-01
4.909610716810906550e-01
3.002094145470614039e-01
1.761512997528869029e-01
2.471508756559192277e-01
2.327333801454227469e-01
2.053202332106210393e-01
1.852491620327344213e-01
6.788182707963966167e-02
1.249982963592304597e-01
2.238897866422558391e-01
2.022499319945070262e-01
2.582388838243607765e-01
2.375147219851020952e-01
2.016845898633739809e-01
1.454059518133688222e-01
1.235849564164683001e-01
1.146825867601471566e-01
1.208811202261185214e-01
1.293717642756642416e-01
2.721360867152435858e-01
3.343495845438583802e-01
3.626607863510619700e-01
1.223118947589450362e-01
2.009919016155005955e-01
3.897540637094019100e-01
9.785561661948874446e-02
9.873766887991772268e-02
1.444889796275482252e-01
1.411863684285845355e-01
1.934568406378137095e-01
1.519089759750284763e-01
3.202720906718040661e-01
1.729526158490330701e-01
2.795983858316031245e-01
1.351156524739673681e-01
1.801839609679747600e-01
1.705934114440190441e-01
1.147748240136640535e-01
4.338225670603610418e-01
3.784834591194199960e-01
1.078084236757981262e-01
1.973049472045106945e-01
3.160851245341452231e-01
4.226157036384147747e-01
9.116791543057878311e-02
3.927969741091731359e-01
8.505647797601618987e-02
2.617994458998093021e-01
1.031016066206565385e-01
3.896791268396860852e-01
1.031527268762950922e-01
4.322922694103635832e-01
2.985370064126540712e-01
5.161886610306594125e-01
2.117530292234290346e-01
8.065015937823204195e-02
3.437919257665284500e-01
2.209255210332020103e-01
1.611117414676968840e-01
3.109977712147305451e-01
1.635798883164530926e-01
5.549041054010479534e-01
3.486342477305206522e-01
2.268245420963114767e-01
2.006707004395584804e-01
2.343698440747848943e-01
1.233711642003173514e-01
2.274779439273388881e-01
1.118993696135560656e-01
4.432783404542370853e-01
2.375802731681933844e-01
2.890358788623667574e-01
2.453317327415132088e-01
2.375125111236438269e-01
1.659333068855080584e-01
3.568441182930655042e-01
1.241052403732800097e-01
1.931481676303830053e-01
2.153788096921870621e-01
1.403176796581841745e-01
2.522249957201234127e-01
3.822137169941206003e-01
9.139911095008892983e-02
1.403251046200760799e-01
2.784758970878580819e-01
7.156091701077924028e-02
9.129176343022898932e-02
1.859417609618379263e-01
2.489497753345868425e-01
2.639057293408259008e-01
1.912075503808270960e-01
2.562412896566446108e-01
5.237967796500229145e-01
4.163362805824709634e-01
1.799517390485675938e-01
3.571297144181673211e-01
1.608670904333404650e-01
9.488668342321103510e-02
1.962522281869439889e-01
1.594771095791240600e-01
1.643440596002103127e-01
2.435229649797742701e-01
4.287499247102287692e-01
3.983426456266484644e-02
3.575869137236859507e-01
1.442505716784988345e-01
1.564329223006237224e-01
3.191935981780088527e-01
1.829161245888649145e-01
2.395919376633968423e-01
2.654046717153514812e-01
2.485314481853286295e-01
1.711171910190503187e-01
1.412640628432386969e-01
1.988884923876588495e-01
1.574908975633185215e-01
1.922011079518730348e-01
1.978387561800808159e-01
2.366738577796059506e-01
2.775366446866510683e-01
1.573661621333946325e-01
6.910324540913068692e-01
1.883626552447015823e-01
9.792606908481134298e-02
1.450232190637685270e-01
1.182992814457973774e-01
2.653444240159775758e-01
1.148895300994820928e-01
1.011741996239611696e+00
1.409135693601751838e-01
3.548228024611717601e-01
2.834615573854813997e-01
1.361549837104216454e-01
9.641983077168815586e-02
1.028290925281292317e-01
1.983647206225993553e-01
1.661835011616281665e-01
3.455946967460208352e-01
1.336170897378949618e-01
3.231055597493135978e-01
5.919595319298468633e-02
4.327944071047222785e-01
2.750848388032247072e-01
1.587104982073180293e-01
5.538214379194063008e-01
1.650609738211338828e-01
2.287179064442266541e-01
1.120707952661398332e-01
2.540186688943817939e-01
1.578935315860295896e-01
4.477202007580101673e-01
1.571992343631757327e-01
8.658493780723222066e-01
3.605831406746284329e-01
1.246818511615271491e-01
1.395879323240549474e-01
1.510692367907272848e-01
5.022224441343368928e-02
4.750759834132879944e-01
3.081602813057657819e-01
1.003001351011667763e+00
3.019640432168381183e-01
7.442690407086168802e-01
1.257320293381795073e-01
1.822606423474608661e-01
2.094195107994959448e-01
2.917690770424327673e-01
1.036937989452014347e-01
2.720592256995869596e-01
3.941630218441176114e-01
1.787222776046752948e-01
2.062823018763267346e-01
3.947000567757629752e-01
1.483638603057699790e-01
4.569786729004549075e-01
1.302832725645676759e-01
1.104069687267045796e-01
2.222052314568028208e-01
1.685385990474493612e-01
2.824482811282159056e-01
2.892377821904746904e-01
2.433611862986643781e-01
2.805389224388242231e-01
1.625413960325631901e+00
1.441973910504788792e-01
1.794145094948665919e-01
1.161968183519342251e-01
1.158158628587371702e-01
2.464979622099302825e-01
2.438838890379952107e-01
2.861886442999922453e-01
7.539764785960302307e-01
2.000367393028226193e-01
5.609769659261473057e-02
2.411708125658387492e-01
4.209192894945290031e-01
1.948546407624745513e-01
1.335465589038543066e-01
2.608677886274473612e-01
4.165830950089096096e-01
8.649054617915091780e-02
2.439811584192814742e-01
1.481772927050676869e-01
2.754497462922874673e-01
1.665511678567173637e-01
1.202725552524557817e-01
8.048669945059516717e-02
3.507330306899383854e-01
7.154888403408513065e-02
1.566245416311288219e-01
2.514790800528690085e-01
3.675850335633268351e-01
3.521587629030816791e-01
3.567034244555185585e-01
8.413817704817438958e-02
5.474901159755953678e-02
1.378212945489655783e-01
9.077924961921792768e-01
1.730172134148412477e-01
3.076899046821824357e-01
1.393250035704386158e-01
8.857966718266929718e-02
1.487543483250392817e-01
1.259351857642685979e-01
2.050692078120232020e-01
1.973697794926827509e-01
2.220823094321103253e-01
8.606316955739734542e-02
1.115854788340256976e-01
1.213826430452753513e-01
4.309329195997712025e-01
4.138437449837944482e-01
1.205692422585307316e-01
1.873822945366268311e-01
1.101061781384461702e-01
3.671875871198997388e-01
1.753702669824811489e-01
1.444845401347306935e-01
1.601493502484523379e-01
1.658569169914762831e-01
2.008424388800002514e-01
3.882995621518827711e-01
2.730676187301507296e-01
2.394283734696159294e-01
2.402984084054867187e-01
1.904157489991201713e-01
1.596404233163380981e-01
1.194947576775578363e-01
2.221438845238695448e-01
1.002080632003127802e-01
4.504803076653233207e-01
2.395535687577937667e-01
2.994646694393181541e-01
1.792737736418288652e-01
1.414304036000151865e-01
2.266816137466209358e-01
2.928183746888149419e-01
1.519076851474761014e-01
2.929715367648010327e-01
2.087514302973694225e-01
3.186085200952108454e-01
3.074624362214264939e-01
3.539812433362753419e-01
2.515411113225375916e-01
1.049319165674160170e-01
4.009702105665300942e-01
8.480541533537985788e-02
7.697730000378638637e-01
1.114625929725606701e-01
1.992960315315112918e-01
4.368334399039579541e-01
3.801800686339484869e-01
3.137492458647464511e-01
2.955415246571398979e-01
2.126288354106494749e-01
4.018744315616334939e-01
2.099064970389256102e-01
2.720193538861215288e-01
2.623106103341614759e-01
1.742732469966678244e-01
3.998508026108834601e-01
1.563092031990854780e-01
5.505052819371551720e-02
2.478957181513880559e-01
1.567810819215824103e-01
6.736358338979551996e-02
2.262876802899972672e-01
1.740648845011186219e-01
1.578359686729724765e-01
2.607856508417703001e-01
1.265863689121074775e-01
1.510772777713424997e-01
3.702056522410341333e-01
2.184428540182784539e-01
2.526941184858147449e-01
1.559079235948190034e-01
1.047181692083488935e-01
1.252367795800670147e-01
2.647452848019193894e-01
1.123032689740592754e-01
2.210395020142134626e-01
4.671835907238344188e-01
1.115989535784651099e-01
3.141233507530033497e-01
1.433314249536313256e-01
1.111884611218980912e-01
1.090148223705877800e-01
1.407071319944034060e-01
1.547719925970725552e-01
2.397448939079012131e-01
2.595704537452814820e-01
3.707849010712528925e-01
2.798785213127266136e-01
3.689154940240770286e-01
2.316210858617229751e-01
1.667038486729420232e-01
7.560027156866497844e-01
1.118082823624993449e-01
1.623394173061948331e-01
1.139072084587618855e-01
3.821352968329033706e-01
2.973551194364065786e-01
3.075597279509826865e-01
4.393922472263095402e-01
1.742223647750970050e-01
9.665612235389876850e-02
2.679238373040322974e-01
4.466529264367868901e-02
6.638573166060281194e-02
2.438484401163378279e-01
4.670490982085394593e-01
6.633185480144299095e-01
4.586793477279057507e-01
5.964798298528519727e-01
1.456801321004762562e-01
1.840523696475999671e-01
7.985078920283479320e-01
4.331544211287817747e-01
1.929829841455034389e-01
2.032273304193527586e-01
2.209128342109645815e-01
4.976618529369638000e-01
1.409448947812208808e-01
3.212651891552417149e-01
2.717276750379041816e-01
3.196854143901405876e-01
2.256985070945326244e-01
1.156711624724842541e-01
1.166517286951798127e-01
2.560196391177219644e-01
2.103075631822574065e-01
1.357351697748470365e-01
1.763109002400221337e-01
1.607142961810212600e-01
1.042766112754487107e-01
1.516805670350391266e-01
1.308011580005840890e-01
2.396304293216050540e-01
1.962068744630193762e-01
2.339111576204824794e-01
3.611585072191053625e-01
2.858742748478266815e-01
2.464341845328143488e-01
3.331858457075499436e-01
1.321032672161744637e-01
3.771226803720685306e-01
2.485184588975648812e-01
9.412617869040804108e-02
1.393847051807797222e-01
7.408911892304333169e-02
2.246620490188993013e-01
1.223592457043817250e-01
1.185335793783770381e-01
2.586888266182397200e-01
3.510393265597537837e-01
1.483876402783941562e-01
1.543889612328467609e-01
5.012438226519930762e-01
1.914219669247540778e-01
1.651633013432036445e-01
2.724392544875822025e-02
2.572223290639320536e-01
2.953588614014351910e-01
7.210252574469993014e-01
2.137704921994603435e-01
1.347008905197385753e-01
2.523686241728001489e-01
1.650413266356207942e-01
2.163349519343732985e-01
1.497165362878337402e-01
4.099104613489319981e-01
2.028897288349161554e-01
4.027224796955799491e-01
1.851913845586945218e-01
2.545189365711998386e-01
8.944814026084810243e-02
8.423652485112489985e-02
1.762420799817373818e-01
1.599102808867111647e-01
4.051834716196158759e-01
1.136858639280527578e-01
2.230005989923960763e-01
2.781718138082310277e-01
5.077351722662550859e-01
3.250872517857635313e-01
2.013146567730700887e-01
3.621502673506981074e-01
1.365972514784949410e-01
1.504878530863164032e-01
2.758782113219713228e-01
2.725681322015727770e-01
4.275955873318238454e-01
5.423539518756829991e-02
2.053988899785641475e-01
2.014114537628055590e-01
1.348863297371802328e-01
8.683509477373463348e-02
2.376117997187111586e-01
2.212441992329592932e-01
1.399294307109642810e-01
1.565374734522659295e-01
5.481381941870929614e-02
9.078131361935729005e-02
1.031658547939280496e-01
2.295478410567485805e-01
1.457434152083826873e-01
4.654992628690872436e-02
1.966342019237249938e-01
3.695321607075912618e-01
3.205078788188843175e-01
3.907345803547481733e-01
2.503492629630933441e-01
1.215843868181049753e-01
3.440689179201694703e-01
2.686065088691341751e-01
1.034410783427612834e-01
1.857358973701906946e-01
3.494982603910014030e-01
3.538178201573493054e-01
3.075166430658148320e-01
1.853369798884172970e-01
2.324903427616498985e-01
2.057381470202062912e-01
6.424209821341360094e-01
4.360674546669050522e-01
8.461916375585187833e-02
2.973749836977536143e-01
1.021585169160897089e-01
1.560279273038245040e-01
2.350319265531963242e-01
1.907624300357327329e-01
4.043090868090998269e-01
1.780159798850854402e-01
2.717346512211697984e-01
1.077490940198937291e-01
9.908009178575744036e-02
2.281115125738648608e-01
1.530227539582467156e-01
1.592749874198098881e-01
5.812828079566012995e+00
2.771015580276205426e-01
1.051312286176437627e-01
3.149548821047027936e-01
4.026617633550274578e-01
3.731920887016166311e-01
3.794434014031227154e-01
2.679456871326774126e-01
2.057145745809809412e-01
3.666730896101301207e-01
1.235836392671493811e-01
3.670077344369687133e-01
1.527931412634216501e+00
3.117118979621229524e-01
1.410524072490185521e+00
1.831270269754246283e-01
1.481113684265501496e-01
2.349197367036183759e-01
1.023080986466506692e+00
9.885430417154007499e-01
2.452806921638527315e-01
9.772981263808268315e-02
8.956786963801579571e-01
2.659525142708005774e-01
5.605251885549300539e-01
3.100542273488448575e-01
1.109708795899654321e+00
3.821672718506960442e-01
3.361219349753337693e-01
2.052668186040788878e-01
4.158519125786664938e-01
4.155140701220963462e-01
2.794472238439536516e-01
1.325384758340512892e-01
1.737172757888233166e-01
2.056472547101430848e-01
4.502088367270000724e-01
3.579830684407327990e-01
2.773178040746430151e-01
4.905035428883253168e-01
3.803478383891173986e-01
1.734653693530349150e-01
3.979941666412222800e-01
1.271798478585576264e-01
1.131395907749297991e-01
3.032528571991424671e-01
1.664800597800611404e-01
4.376016012556808166e-01
2.136495167666576100e-01
2.032591479285291436e-01
6.304027632501444378e-01
4.669244130788849367e-01
4.425373412057831968e-01
1.219848594448154216e-01
2.746614651974691457e-01
5.425225721627821018e-01
2.175842138830723083e-01
1.335804041981498713e-01
2.003379188293653509e-02
3.275308214543357632e-01
1.069179760444386007e+00
5.702953110170938533e-01
2.438411588895225690e-01
1.966551359686049272e-01
1.768257918714666865e-01
3.064859066412587985e-01
3.382216056613316923e-01
3.461735066604342270e-01
2.293537449583620824e-01
3.136345242398350663e-01
2.334179955564837927e-01
1.381610991906284946e-01
5.236005756863307825e-01
3.546464756521204853e-01
5.427054243508311338e-01
2.204542928626719855e-01
4.367887935296663748e-01
1.073992943342047812e-01
1.471392508017068390e-01
4.698776710837909709e-01
1.982574991120991670e-01
2.280204350148749004e-01
5.655602807844462010e-01
1.508102591189749431e+00
2.293199809635967923e-01
1.917606983952424016e-01
3.472501835888617827e-01
9.857895278786306392e-02
2.995904622576627263e-01
6.979127933545175022e-01
6.151332914872175150e-01
6.946208474510238151e-01
1.633976735599712571e-01
1.195529437872091094e+00
4.238007252164411875e-01
3.090431566172077704e-01
1.714425433060990378e-01
2.648740471413819075e-01
2.675966642317160193e-01
1.386919546915701962e-01
2.630577026218070547e-01
2.024705287734096248e-01
1.336717770465517818e-01
2.814848378463010170e-01
5.273961780628911855e-01
2.314033519151899032e-01
2.671378898057940043e-01
3.655491393367636399e-01
1.113187726612336753e-01
3.581565044998533676e-01
4.889385823255237851e-01
2.437151526780627908e-01
5.004604693462627596e-01
5.789628302408704741e-01
3.911781027765272034e-01
1.014524989346019312e+00
7.566512091101182946e-01
3.186226539217699716e-01
2.532792096635946288e-01
2.597478803791236079e-01
3.217024453599011680e-01
2.046072129704388232e-01
3.618719169750220788e-01
3.272023472206147532e-01
3.891508055455650816e-01
1.055346879522977566e-01
1.860033191892301041e-01
4.026727097789375431e-01
6.529554327200373098e-01
3.272655618037252911e-01
2.345238778402806701e-01
4.194028394773932078e-01
3.759474490378502121e-01
1.847787599115470192e-01
3.554318973288509431e-01
8.749792928028268801e-02
1.897146662144599261e-01
3.491222963572084836e-01
4.735357880296736655e-02
2.053790096796102860e-01
2.406274409018053506e-01
6.814905540986454513e-01
6.715175126361816460e-02
4.841077020256697727e-01
4.223801989168793902e-01
1.335434453297082713e-01
3.022262312960178887e-01
3.669830800305218244e-01
1.501657964494146902e-01
4.062644726668665496e-01
2.579080525604611207e-01
6.710621198652164110e-02
1.218366982997218656e-01
5.254325450879906434e-01
2.336897005654689219e-01
2.939797224652531682e-01
3.998239127094636580e-01
4.494244389760133629e-01
3.861560477676912462e-01
4.802560930420209928e-01
7.839668854653625285e-01
6.383097748272957839e-01
3.942641129399575006e-01
2.643897778592525505e-01
2.887664033816623732e-01
2.772728727162503959e-01
5.473503899105497394e-01
2.434777834540146346e-01
1.963190286918058136e-01
3.392509034353611286e-01
8.243421901531879092e-02
2.704630261710221362e-01
9.996043855645997400e-02
7.981384946572491756e-01
5.604276592173280669e-01
7.659954990110593442e-01
5.284876100688055134e-01
1.727395325716847063e+00
3.218209885664032877e-01
3.879043874208245590e-01
2.924044023330266140e-01
2.785029260231083881e-01
5.413318119238538229e-01
9.630630960797421924e-02
2.893779453434984217e-01
4.211305151512623191e-01
4.595531576085806758e-01
8.448852707548146213e-02
4.008113217877656842e-01
2.633687005581886176e-01
1.907033493330126117e-01
5.511784559077689272e-01
4.947584395946203473e-01
3.861968013913988362e-01
3.483008281737010603e-01
4.632938890785509023e-01
4.947034712763248576e-01
2.919093153814706909e-01
1.916011871253884280e-01
1.891612965206260488e-01
1.752901904136972000e-01
2.409762557756243984e-01
1.676663736544874717e-01
2.575378787375475764e-01
6.130981021719740243e-01
1.256034579682878405e-01
2.789956031670306480e-01
1.226956214566799486e-01
9.019810101107348377e-01
2.247475443646600735e-01
2.309799066284206615e-01
1.396649532563409568e-01
2.199029565351597049e-01
4.206860453096733510e-01
3.516727887947523890e-01
3.800514732750697178e-01
1.879655854332841491e-01
7.935182165834355761e-01
1.749032220809270399e-01
2.433784305924917291e-01
2.218829776378198892e-01
5.897315282810631221e-01
6.071970144251068735e-01
4.934155735295550627e-01
1.137223165317533535e-01
2.512707892522471065e-01
2.232907742008837237e-01
1.439713351465888858e-01
3.208724492332847289e-01
3.561425199130405228e-01
3.096900563101151471e-01
3.815862768141849992e-01
1.780606205436416900e-01
2.992325930246005905e-01
3.024720180723916019e-01
1.037256888782702030e-01
3.014684556866116805e-01
1.045621493933185514e-01
1.824617556913895600e-01
2.256685240342056753e-01
3.504706846908400841e-01
2.745806136993321211e-01
4.811924714901559819e-01
3.406057994124382371e-01
3.278410361058926026e-01
3.031332309332674946e-01
1.718399843172833397e-01
2.171252672012377039e-01
1.995935174433151049e-01
4.875764251035261676e-01
2.308103584216624204e-01
6.551403865528226955e-01
5.412622566852454131e-01
1.989081245331701941e-01
8.462334071734435581e-02
2.610704480197157396e-01
6.521721078262430193e-01
4.252154791464868300e-01
1.506449808603330942e-01
4.114368186818206374e-01
1.994970423779547364e-01
1.616689243212087179e-01
2.634397055585380731e-01
4.118845489514464386e-01
5.754753746636452894e-01
7.484349782585371091e-01
8.621069309391393709e-02
1.857761974157621787e-01
1.403364536067538970e-01
4.038324525049414304e-01
2.328473259761013603e-01
2.585427363051162053e-01
2.729144983287098425e-01
1.468459185045732085e-01
4.042708367919273238e-01
3.759441898028960338e+00
6.228627364941036193e-01
3.020489864225086585e-01
3.898263467422014017e-01
2.234668401355716649e-01
1.597574392780480024e-01
2.524416790991717563e-01
2.736511981187154108e-01
2.406208570318715712e+00
4.101085519916475852e-01
9.847567191040144108e-01
2.230002918833471626e-01
3.442203103547004095e-01
7.501568487782177275e-02
4.018202397537306569e-01
6.781801983172065784e-02
2.318243474209497612e-01
6.274864199622224303e-01
1.482606757696677269e+00
6.111363762454249393e-01
2.452022141126389831e-01
2.812322920440305518e-01
1.736811423236421792e-01
1.489734825370931104e-01
3.906513943765706487e-01
3.792218029268013546e-01
1.929995832768404973e-01
4.387646620946827336e-01
2.850341783236146065e-01
1.600270011090515754e-01
2.530021909500580479e-01
2.994519239959735901e-01
6.974428609838920767e-01
3.113725231926900427e-01
2.019452910794853895e-01
8.147650797964332003e-01
3.392562687575340630e-01
3.359642511290117928e-01
1.698182126157827265e-01
2.545362090283933010e-01
1.287400381282962636e-01
4.104849352316449207e-01
7.846090732190591499e-01
2.974869381075446739e-01
2.387824426715290937e-01
3.008871734201901127e-01
2.973805873506468189e-01
1.985082911030011388e-01
3.127151387807499128e-01
3.689088135865675744e-01
7.583926164577785289e-02
2.781474643220664955e-01
2.158676070278043868e-01
6.471071997313373458e-01
1.422643833208679098e-01
4.444377057329177427e-01
7.132508561768055033e-01
4.695553623930260878e-01
3.219253677288145266e-01
7.479089861494679914e-01
1.657538780447061766e-01
4.059853849735495790e-01
1.278256729932166214e-01
5.170371934866643815e-02
1.167864994491929265e+00
4.495549728494933062e-01
4.893372906002723677e-01
9.783091312005556817e-02
8.320853830191443645e-02
2.106118028275471010e-01
1.156770139848158074e-01
3.628042977485430032e-01
2.031149220051778892e-01
3.115185143616573393e-01
2.212867695167969884e-01
6.242870770361345079e-01
5.137710927376600845e-01
1.165117205246842258e-01
5.679187801751255371e-01
1.869689801056003131e-01
2.739137574019296362e-01
7.193820559731354258e-01
3.091849198479745819e-01
3.381674777486126660e-01
5.095896007236755398e-01
3.782933816703352714e-01
3.872498164010321764e-01
3.323799974645987310e-01
5.439416626292360446e-01
2.130509189511363144e-01
4.563650583679382811e-01
1.812861679257508074e-01
2.996875900329266651e-01
2.872446459675280783e-01
3.342468014897019279e-01
3.777264184922709545e-01
2.231537415486142817e-01
1.877536467988467905e-01
3.495780828334787427e-01
2.408711716367060163e-01
7.669383347786101757e-02
1.340677889297438308e-01
1.823722410969697005e-01
1.538769028185295873e-01
1.695296004662533385e+00
3.340498462897382170e-01
3.079295983605334075e-01
2.869787589403539063e-01
2.162272672673963836e-01
4.197357378289755525e-01
5.183273477069919588e-01
9.204407188326413358e-01
3.035647572749347045e-01
5.970447724928737987e-01
3.385775131150668416e-01
3.919427174060515218e-01
1.576990849078011792e+00
2.050706920425347524e-01
1.004674662524783324e+00
1.641699680099985015e+00
3.499952506874465241e-01
5.071748141115850483e-01
5.701588148443758053e-01
4.124811528055134513e-01
2.129080614898505308e-01
2.102058199949509987e-01
2.424902258378150710e-01
1.493888772155325118e-01
2.239767643392978069e-01
1.251850417610768651e-01
1.651819692958412245e-01
2.436201896934745981e-01
3.473009268686497730e-01
3.126504889151453526e-01
1.968743739240118029e-01
3.679079892720623080e-01
8.691190841321838612e-01
4.374456573383284641e-01
3.336110392167506711e-01
2.929993614981770689e-01
1.511655239571745746e+00
3.693614890825834829e-01
9.922922617905352571e-02
1.841772795114695049e-01
3.727522178163253930e-01
1.233353064672541022e-01
4.532203581189934161e-01
3.261774290755483086e-01
2.392944609739660888e-01
1.158463864597238491e+00
1.394453521470283841e-01
1.339226134414368552e-01
9.983209722211874859e-02
6.696058362223149540e-01
3.819590355946590465e-01
1.976864288317719820e-01
3.336735537958187003e-01
2.522821239660663073e-01
2.393857895007131253e-01
4.219193258512414779e-01
2.392932043856657309e-01
2.633545883351139372e-01
9.110048660361705353e-02
1.531433547352141766e-01
2.432408212857036789e-01
3.434506298723621898e-01
3.229173928699647367e-01
2.562277787784881244e-01
2.474078150120039843e-01
4.513488423839026598e-01
7.170166122631412009e-02
3.707686851467532629e-01
1.984222138590386597e-01
6.894185501713644137e-02
2.030635279717497022e-01
2.606637456328307345e-01
2.173709825746140689e-01
5.347007705383560738e-01
1.953200240840782254e-01
1.000857965240853353e-01
1.612806340603309130e-01
3.519582042395266730e-01
2.431793300237033995e-01
1.885745098649426188e-01
3.177214072043595960e-01
2.273042629655574187e-01
1.144559117231860046e-01
1.647360579587966167e-01
5.060042523946744336e-02
2.439313005746873708e-01
2.104192165016327554e-01
3.643550945127758123e-01
2.362678767386661716e-01
2.221139415159374408e-01
4.040367542092300202e-01
3.064481852063023481e-01
7.478470204093045082e-01
3.990833901708837339e-01
2.540749741063051959e-01
3.769566438964292998e-01
5.793579604988646770e-02
1.343380359600261642e-01
2.214838154964374195e-01
1.665388813208000252e-01
2.059601769428422990e-01
2.746789871310528208e-01
3.202140178411411742e-01
4.140657493752434304e-01
2.882094024321688597e-01
1.674583504621119934e-01
2.990854979636650146e-01
2.807299227336322311e-01
1.479586271531481700e-01
8.577995789195327903e-02
3.242443793853371670e+00
2.870912237576134229e-01
8.354982825425079362e-02
1.817460785576147653e-01
2.330281521526288702e-01
2.485610822812654441e-01
2.842558472727438890e-01
3.035785245902269947e-01
1.501731974051409568e-01
1.587240416109529928e-01
1.753916117173162370e-01
2.381492962327146912e-01
2.459861279446768079e-01
1.527387190734445510e-01
3.941774634252663834e-01
2.731626044393078989e-01
1.159114475710216474e-01
8.517977966683272506e-02
7.723038687867059271e-02
4.777194644201644969e-01
2.849733087164921796e-01
4.718231048056271137e-01
3.229028798283332113e-01
1.568163702621073741e-01
3.291101091242647492e-01
1.519080928065036640e-01
3.903292652822668574e-01
2.448680857002055178e-01
4.321329757584236875e-01
1.301601844379297324e-01
9.729509594921992299e-02
3.925618000178555667e-01
2.770777649087097227e-01
1.697243737053652224e-01
5.347470025627101275e-01
5.595812959557280308e-01
1.863495869180705200e-01
2.198263718368043129e-01
2.895965853740283258e-01
3.693358547208900333e-01
2.228226629758509048e-01
3.133754545665760061e-01
4.620144460762999894e-01
1.622240933386237538e-01
2.550203425450341399e-01
1.206791521099835202e-01
2.127508483524976901e-01
3.182074166159788442e-01
2.651872098295522395e-01
2.065901021365051382e-01
3.453702117845781627e-01
4.639737916009060159e-01
4.104325143701539336e-01
7.215003649727330659e-02
1.487613915954882071e-01
3.550502293075851190e-01
2.032823754309941167e-01
1.407813216368382914e-01
8.628184604571838279e-02
3.340475796822159338e-01
3.342046535956946229e-01
3.207438942449301056e-01
2.425770347479816458e-01
3.403852058636739342e-01
6.158093413834980767e-01
1.355573864780146576e-01
1.917669442823076442e-01
4.515753940623738472e-01
3.783131666160054474e-01
1.697362414005051945e-01
1.111192824768591769e-01
1.841946134049695094e-01
3.269668529528800827e-01
2.059446912947993646e-01
1.917775380144986219e-01
6.265263860330598789e-01
2.074634085497941705e-01
1.652369001160849948e-01
2.940752458287829718e-01
7.803657888805662357e-02
9.175268872328659620e-02
4.218759371390750079e-01
3.731460733025923626e-01
1.384369207952815539e-01
1.537524958917514950e-01
3.004287286347635533e-01
3.222577660902610774e-01
1.229863214811763306e-01
1.423476581613069836e-01
3.073255502627125768e-01
1.202040678654162920e-01
3.368562269437763157e-01
1.380841769840554789e-01
3.956723398356203902e-01
2.476958055960686855e-01
2.981829112837289242e-01
2.511136310465614807e-01
3.267800542686831733e-01
1.059723001594002623e-01
1.180535421103947463e-01
9.831341438323759618e-02
1.381230108608952067e-01
7.406728768883020786e-01
1.355774457510476649e+00
2.861845900462294257e-01
1.707495283219622184e-01
1.958488493588921298e-01
3.392133845624649147e-01
2.894093811931387483e-01
8.350729223128551537e-02
2.220990825698230253e-01
5.482864868578357864e+00
4.152555065174740601e-01
3.771297143998590951e-01
5.138049770182810949e-01
6.283700230587907498e-01
2.590421646056124128e-01
6.734681019109081124e-01
1.090900008975331237e-01
1.969878294114798811e-01
5.224140357728688233e-01
4.916849943749936058e-02
7.922811256767817722e-01
1.553769723286187732e-01
2.224618421180983296e-01
5.943762969388939332e-01
4.245625382537986936e-01
1.092502644665185735e-01
2.812981433195276271e-01
1.163543432043399606e-01
2.115278945172639480e-01
1.776381403394841352e-01
2.166922010606180948e-01
2.647486864770801640e-01
8.983623803715948819e-01
6.458288437170737195e-01
1.166195988498539143e-01
3.596487788478432979e-01
1.792065053594515678e-01
1.664432127568889197e-01
2.255390835973120067e-01
3.817077041055339515e-01
9.016890784423568783e-02
2.739476158969055275e-01
1.428868043135432531e-01
4.113898743948908310e-01
2.276744887185036814e-01
3.082354606213449921e-01
2.966624210682831109e-01
5.362133119287701977e-01
1.554726409287943145e-01
1.790082658264293414e-01
2.696408679120959606e-01
1.774888495648793141e-01
7.778823735149845153e-02
2.427025330692761662e-01
1.634461068796003447e-01
2.953555501342113310e-01
4.144551861873895793e-01
3.984855707130209868e-01
3.250495625797546473e-01
3.423292551802247230e-01
2.062409481614948248e-01
6.410895600630672764e-01
2.340506808294411656e-01
4.865224919699901451e-01
1.427562581254591123e-01
2.054662152016747956e-01
3.516464052131637597e-02
5.265010206500612355e+00
1.438503327765593698e-01
1.245102052567536588e-01
3.014043872682841130e-01
4.270932855967920494e-01
2.092736109070903461e-01
1.252279287687319831e-01
2.931974758241745471e-01
4.879125597014139504e-01
9.132293648231176730e-02
3.002144875594646711e-01
2.000455945810862557e-01
3.237484590226507031e-01
1.478228920196486551e-01
1.728644474187976399e-01
4.524483669455174883e-01
3.031401028937300013e-01
2.653539298361377030e-01
3.476412734348595657e-01
2.402774944522588219e-01
1.436011719687495247e-01
3.187000241576108395e-01
2.705524873957130816e-01
5.108970644105614856e-01
1.673716648798893036e-01
3.555547845709911559e-01
2.416511464994448855e-01
2.227609607920785773e-01
3.109658575022268834e-01
1.981907673469439912e-01
7.261050888134443215e-02
1.317838326133627114e-01
3.424460330516967965e-01
6.310473104972768033e-01
2.273054891642209696e-01
2.566565046038006281e-01
1.577149838382759517e-01
2.334448283706427596e-01
3.198178769571816127e-01
2.681115745234617931e-01
1.465528504540400956e-01
2.301718968279755639e-01
4.823583161470058889e-02
3.573238234801605073e-01
5.022057871367791027e-01
2.454066766295038837e-01
3.211455861950779922e-01
3.910501462359074476e-01
1.630453873470805448e-01
3.602694107149333469e-01
2.176842380337405958e-01
1.498980835431458214e-01
2.545859351129946546e-01
3.778772185254511418e-01
6.165410570077299590e-02
3.707228624085007890e-02
2.125722205410701671e-01
9.816811008597542410e-02
1.915643611649887612e-01
2.078809029191703850e-01
1.967047422386810074e-01
4.658309604861927689e-01
2.721141286689063854e-01
1.071965584945668570e-01
2.069868362128184369e-01
2.816933801751518307e-01
1.387166220229243407e-01
2.443372440244079569e-01
1.722022760052918655e-01
1.291311538653774349e-01
2.473188475056955216e-01
8.510562760714311947e-01
3.929823309982806157e-01
2.348214363134900617e-01
1.318699558565554486e-01
8.993381591982034795e-01
4.906046950473721413e-01
1.244633442429861070e+00
2.502156685419940074e-01
5.727096901518550220e-01
1.105631394776079857e-01
1.849718373097989921e-01
1.019847344714067960e-01
2.283011957632963829e-01
1.785049786984446829e+00
5.077938251027096506e-01
1.784518384130173718e-01
2.089769186632238207e-01
3.054614984264955035e-01
3.212622014066696674e-01
1.304382921509336934e-01
1.208048791632138769e-01
3.384534617828613423e-01
1.628705201673569247e-01
1.458477649347155458e-01
4.383091453850406771e-01
2.092956360670559790e-01
1.288984046180707832e-01
1.408525170283934647e-01
9.003999977639148833e-01
6.478029112946478429e-01
2.001721225116824265e-01
4.820179844995072793e-01
3.135005984206436502e-01
1.248618065767867075e-01
3.913743702924603607e-01
5.223070602452007938e-01
2.188391617635165598e-01
8.475259442545426958e-02
2.568165724227611801e-01
8.261652530694099106e-01
4.528300442404237791e-01
2.988859468081602744e-01
1.889134275200795299e-01
2.746202918612622446e-01
1.123883757831907748e-01
2.568878392703091151e-01
1.716611387852656767e-01
2.131347890647601884e-01
3.281748641907353964e-02
2.256419393015759722e-01
3.668537490083676467e-01
2.232949963504942958e-01
2.530944314913671223e-01
5.246382462499541433e-01
3.153829902178697520e-01
1.132605018623929760e-01
1.220405616621443728e-01
2.048200713684742991e-01
2.272899393295464976e-01
3.413588367757525166e-01
1.587192466273806279e-01
3.390350968064674286e-01
2.584573773733342406e-01
2.418416426303327538e-01
3.402476935918624656e-01
3.755966402803664339e-01
4.459152923535134594e-01
1.450221546137620554e-01
1.835622562969719263e-01
4.969910174826881466e-01
2.704909902602123939e-01
2.935328183389382950e-01
3.371148371995187354e-01
6.366827987137190226e-01
2.243835244514250649e-01
1.416208270995983065e-01
2.226648901499172217e-01
3.803457787105312682e-01
7.681081305262578152e-01
9.197656172187967938e-02
1.373179778937363427e-01
3.946544811875054015e-01
2.521439885627529409e-01
3.120998950049579390e-01
6.184781224110575959e-01
5.689390309143942392e-01
1.170992170000547949e-01
2.960259778488735782e-01
4.470449314148232656e-01
3.961918919569051845e-01
7.643745471541852909e-01
3.238554567139373397e-01
2.746412774601059703e-01
3.916920919981109472e-01
3.054398102539176985e-01
1.934665440670366721e-01
3.415854047739133592e-01
2.096284531053862477e-01
2.178723881061586931e-01
6.815144641683188453e-01
2.795695315957907878e-01
3.391545799301985409e-01
2.057711749133251389e-01
1.518029945212504284e-01
1.796820247355742917e-01
1.652826103952213521e-01
4.136774686396815781e-01
3.684357033022597760e-01
6.505243360911743267e-01
1.078460126304879724e-01
4.530228340665934939e-01
1.764650572053303446e-01
1.910826995030451836e-01
4.416911903975296316e-01
3.628708606211813459e-01
3.337070325604611920e-01
2.933945613118862927e-01
1.858150539291267833e-01
9.634844099878289714e-02
1.800369080478693151e-01
1.212981776308204585e-01
1.576594878528415067e-01
1.339702056706880973e-01
4.728726731298601438e-01
3.965913279017730941e-01
1.247431401987032062e+00
7.579769392214414925e-01
3.812098062001663679e-01
1.900151950564322456e-01
1.524223936977727734e-01
1.102467555744491984e-01
4.434256170971893618e-01
4.281632702053499440e-01
4.133278135456639468e-01
4.111732334457145477e-01
2.934754156039215411e-01
3.980170947011311133e-01
2.462385646475772072e-01
1.516104657049510973e-01
6.335087793396420031e-01
1.810220532066488808e-01
2.051035962372049215e-01
4.115652097387595409e-01
3.089198749153660439e-01
3.253484948829462597e-01
9.073387116196618418e-02
3.250237445982422368e-01
1.212226610596315590e-01
2.240005408514461616e-01
1.677331593194412163e-01
1.823070035447178494e-01
1.458659710840833623e-01
2.038723252738252889e-01
2.229536331892451873e-01
7.414642046956350097e-01
2.514681542859718011e-01
2.304793105095085393e-01
2.524481649220413071e-01
2.679046558037923020e-01
2.016558051583600131e-01
2.299643180475093307e-01
4.045692531074648324e-01
2.031397153483260609e-01
9.998609637791096016e-01
2.669401686494489723e-01
2.995378135762063465e-01
5.691654720971131010e-01
1.378036192680564431e+00
1.308857802501667278e-01
4.335589338232657686e-01
3.106590925347089138e-01
2.916114510576379992e-02
4.200756478317354548e-01
4.409866260428512152e-01
5.083344483451965878e-01
7.527395331621322683e-02
1.929557549158398277e-01
2.198350137054391196e-01
7.935953788984731472e-02
3.577557721251720113e-01
3.491050368836067230e-01
2.956194117138415400e-01
2.739216168762358405e-01
3.885516766638755781e-01
6.652554456458954490e-01
1.961765585495403863e-01
2.476171147683522422e-01
2.720459769653552629e-01
5.236927961172223034e-01
1.212357121683717009e-01
3.145838656239977604e-01
1.133423504724010294e-01
5.310302993870404942e-01
1.445906986081399448e-01
6.045618718097556243e-01
1.512837667545021691e-01
2.334733716652707125e-01
2.763363655526073215e-01
1.816157421018172180e-01
1.492424088213382682e-01
2.645941295106465363e-01
1.215444172914940252e-01
2.269614688904601496e-01
4.715282801645727107e-01
2.162400300469329850e-01
3.373275341459708310e-01
4.762539353109768725e-01
9.589210568720792083e-02
2.198265978333234227e-01
3.735533832261810905e-01
1.784367492570946845e-01
3.589640723355883578e-01
1.614173325560915861e-01
3.285503913631379058e-01
1.492032074001123088e-01
9.424276043535222136e-02
9.349071825625282495e-02
2.320892460025339166e-01
2.236659800158725953e-01
1.720519590539890398e-01
1.154569110495753531e-01
2.334659614799197702e-01
4.011298639282060430e-01
1.202076847286720901e-01
3.452641800225387803e-01
1.679287481638032375e-01
3.639204663145447216e-01
6.963388068348264071e-02
1.082223614792531541e-01
2.129860240122580795e-01
3.024669673272528669e-01
2.629553832485521658e-01
1.151954307806227762e-01
6.103242022165245723e-02
1.158576548731614642e-01
4.833400087140545670e-02
2.894241226277687873e-01
3.402651408753810669e-01
7.533406143229671725e-01
2.239045038031609591e-01
8.973450279375766447e-02
3.059551886422985922e-01
2.672008507702647861e-01
1.639344479742451954e-01
2.552272744660193937e-01
9.455068386657572432e-02
3.994856182040993908e-01
1.386061933270612279e-01
4.655644898406257060e-01
2.412871922698225369e-01
2.800675944885154256e-01
3.704105710228549064e-01
3.636622321967746818e-01
3.101201134904900680e-01
3.577177881666560033e-01
1.341944921760463150e-01
1.591284631553270823e-01
2.230763390808221946e-01
2.950772778161378507e-01
1.089553337946344291e-01
2.090128638759054525e-01
7.834077786794300946e-02
6.055763208364620814e-02
1.252499183272726690e-01
3.503635558915013659e-01
1.822533346159762369e+00
1.770299017866850677e-01
1.831712496917616562e-01
2.427181993667988369e-01
2.044719490868174561e-01
2.071607057323760492e-01
4.957063117936446051e-01
5.784551810896474411e-01
1.929205599141054217e-01
3.036145743504088390e-01
2.348428723797980622e-01
3.219486034479641656e-01
1.987837412538853155e-01
1.540642376017055670e-01
2.232826159231290353e-01
8.485657606173865886e-02
3.730498516575846413e-01
1.600051232120015543e-01
2.106413719045218680e-01
2.512246335536811315e-01
1.625520219416044521e-01
4.346710076580015958e-01
2.264022507173031329e-01
5.385841134509739003e-01
2.656003541203760254e-01
2.639283492993879654e-01
2.842350520587396678e-01
4.584142087954578559e-01
3.367082819314204389e-01
1.094265871449467131e-01
2.850283373527687791e-01
2.225665122895694736e-01
4.460054456505115894e-01
3.352922821818679067e-01
2.182144309525962389e-01
3.910872595604228397e-01
3.141712403150333510e-01
5.066083432382326723e-01
3.295726302220957082e-01
3.507593136633281317e-01
2.470461093860624735e-01
4.146421967191668001e-01
2.510986726112214296e-01
2.076525136010534955e-01
9.324702393490072461e-02
1.179101565377951855e-01
2.884210116459395845e-01
2.190132277738859046e-01
1.850942836045347539e-01
1.532839722877305522e-01
2.475206037888452171e-01
2.231519314814281174e-01
1.338741029682676831e-01
3.581418092881139548e-01
4.187740766556252714e-01
1.529261853839822549e-01
4.240409046813083394e-01
3.492618397761285132e-01
1.047872921756734105e-01
3.400886525195994103e-01
4.998156977459040085e-01
4.246774401302194080e-01
6.189490759198316983e-02
5.080175748203061836e-01
1.587770132645698884e-01
1.618628887164054175e-01
9.099582511991990974e-02
3.843107362738823474e-01
5.279282820982365898e+00
1.616125155873817110e-01
3.210906627953742931e-01
1.018599386430096287e-01
5.097428738885456667e-01
3.503485022451355291e-01
2.258327296796304173e-01
2.523568538324398869e-01
6.282870930240399554e-01
5.706274661079597799e-01
2.553923158171210739e-01
5.368135618126231856e-01
6.811889198340239648e-01
1.545707797868997313e-01
2.622314552104161867e-01
3.367181752159648100e-01
1.479141888448748432e+01
2.039380829236797643e-01
1.922956695866231969e-01
2.385134699144236814e-01
1.288092537740315735e-01
2.884883164647129572e-01
1.020015455530095816e-01
3.102797688173940527e-01
1.973702781045608701e-01
2.189494728524975231e-01
1.816806847615413667e-01
2.254864811019032800e-01
3.257559048092215637e-01
3.966224992640126068e-01
4.456955310917832591e+00
2.965676656101701170e-01
1.742666277697647592e-01
2.680036782491839187e-01
3.849569274195721036e-01
2.280604302628563840e-01
3.380057393169048630e-01
1.113632515388734145e-01
7.128420181386834198e-01
3.123080758705127358e-01
1.996963310860137564e-01
3.333466330270081768e-01
9.014519271615709095e-02
1.861807503259886309e-01
6.092806074685402917e-02
1.236861189419750234e-01
1.850220636766125581e-01
2.878090657984216372e-01
7.248061412402647674e-01
3.272889181329231567e-01
1.530845124908541133e-01
3.308974520553577547e-01
2.083575686740010147e-01
2.759155006451949887e-01
1.546235628125862460e+00
9.201562240661440017e-02
8.628758034372205343e-02
1.034586735389055184e-01
4.046766120956937079e-02
5.788224965642351227e-01
2.051210832436081710e-01
3.422318238590832951e-01
5.091825138733764300e-01
3.695324242688293737e-01
1.487527981254359033e-01
8.644913195246226034e-02
6.871222566816890254e-01
7.816654571175835065e-02
2.318263913709443791e-01
4.538997570198126663e-01
1.873387974997337557e-01
3.406328939157644564e-01
3.187511784941560178e-01
1.685883410613569500e-01
2.053404914807346604e-01
5.605971837823679749e-02
1.603587914368804213e-01
3.291075062525578021e-01
2.947856345014495671e-01
2.543034696774051917e-01
2.449736055515145672e-01
3.052053006346060471e-01
2.524413351054568544e-01
2.169230552351015806e-01
2.090785571982141100e-01
4.703281228327514940e-01
5.804716784766512649e-01
1.664499329703977293e-01
4.578680462384273064e-01
6.367245795169013123e-01
5.983890726625420431e-01
1.235815982985211947e-01
3.307790899916714378e-01
2.451796249642514969e-01
2.445473889065662709e-01
3.026064746709601350e-01
1.399287884015664729e-01
7.100511922174708446e-02
3.956592365097126307e-01
8.069234937722680190e-01
2.206981461048831417e-01
2.927378858136820972e-01
2.314328796461160298e-01
1.029112138315186747e-01
1.023161873513374065e-01
3.518706652467805673e-01
4.019618746230508854e-01
3.257419611827409023e-01
2.601159033804311127e-01
5.329502950259794591e-01
3.832947367823633100e-01
2.776731840099047055e-01
4.058915590602368839e-01
2.141025117672322453e-01
1.440604895976956290e-01
2.955033620034965836e-01
3.338953308955775467e-01
9.552433043880551033e-02
4.718330600217718329e-01
3.336043201207257169e-01
2.464634106456772278e-01
2.131527095259974913e-01
1.900855348679340584e-01
3.897492555350114962e-01
1.315858012466492311e-01
3.274712382183443404e-01
1.557370975011237446e-01
1.312515396043676952e-01
2.497837582569918113e-01
6.191210249484370154e-01
1.441094954207389756e-01
2.977286149417112671e-01
4.758634599198562909e-01
6.168699735011082819e-01
1.986282181609422826e-01
2.623886863529228952e-01
1.504167280078527458e-01
4.787500601254726540e+00
2.023080134389602935e-01
3.243425447390109739e-01
5.161379345321254197e-01
6.011725827462192084e-01
4.850058058357233914e-01
5.427592140661918751e-01
1.960612524380480337e-01
2.236391469405641375e-01
3.672654845766956666e-01
1.522926862751208255e-01
2.733937834255024124e-01
4.137676845839272644e-01
6.979948956240755731e-02
6.096029105975967477e-01
2.048306664156905876e-01
2.879058890903146151e-01
3.819485739130060731e-01
2.126596181779595862e-01
1.589306360128042162e-01
2.192425484260853430e-01
3.703112895522913117e-01
6.281508133924641468e-01
1.891224342924891499e-01
4.268893216319209483e-01
2.392000476232936934e-01
1.590194313796235714e-01
2.119916118629978086e-01
2.106249662806028156e-01
1.422513099948633508e-01
4.081990335772978651e-01
3.311915735083363344e-01
3.976417259745911315e-01
3.319149805408003751e-01
3.780977441337290412e-01
2.315275105619842289e-01
2.801875614710884199e-01
4.468412383042470459e-01
3.888407706707014411e-01
2.376346585228791275e-01
1.997197450387063478e-01
4.274386443381821277e-01
4.551201180739277707e-01
4.558011094968341115e-01
5.374725261447936830e-01
3.447005805792076605e-01
5.349354413204396308e-02
1.452549582047650001e-01
9.149982821013372125e-02
2.387499760291566242e-01
1.343812292583113077e-01
1.673784126002365313e-01
1.976298453327638704e-01
3.670063601338438009e-01
1.368146976238675261e-01
1.492239529358686811e-01
3.864928328756573883e-01
2.506735312932985016e-01
3.335035851000361928e-01
4.994432229580819116e-01
3.681142438517674420e-01
4.000067996867893161e-01
2.491034512567331660e-01
2.838968343645243420e-01
2.728149575467419541e-01
2.593410323847309962e-01
2.036488201937782516e-01
2.718616404010250620e-01
2.328827015348437779e-01
1.193288283984629827e-01
5.114824687693903665e-02
1.916781777112117058e-01
5.982492281948437185e-01
1.951470284173383862e-01
4.598734532708321776e-01
1.032382584286672539e-01
1.414140572480592772e-01
9.570624993935006319e-02
9.417695335184800287e-02
4.504432305917173696e-01
3.595503929852681413e-01
1.068801439852634649e-01
8.908992601035790049e-01
2.230383962066323777e-01
2.000252805147239021e-01
7.204669662224535975e-02
1.837186903040468056e-01
1.763997996711749450e-01
2.706895774521079767e-01
8.981679003683007423e-02
1.650685232637189581e-01
3.206405721372906914e-01
2.065690685777920033e-01
4.576349302728243140e-01
2.339836854341493522e-01
6.619628627878948457e-02
4.467615747665955261e+00
2.617203315255750007e-01
2.864228733618968681e-01
1.189298949261299865e-01
1.402308238754150505e-01
5.792437755078490014e-01
2.319637219925429344e-02
2.787177434064294079e-01
1.455774411805680901e-01
1.367283753455489914e-01
5.792574183042806801e-01
5.113326976842356153e-01
2.306244923380870171e-01
4.098068101863979740e-01
6.123054049631763973e-02
1.555767358069641837e-01
1.122815454832358784e-01
2.464044443843870780e-01
1.538044923916360995e-01
2.044691168825437111e-01
5.811251077301720080e-01
4.294410414443301516e-01
1.927937316732905026e-01
7.747740074719278169e-02
7.963157976525121751e-02
4.506189387457934514e-01
2.238661427107516422e-01
1.350788071048837358e-01
4.271188624129809708e-02
6.639041142005895624e-02
2.228478418965956220e-01
4.575131489514610572e-01
2.136311173394133123e-01
7.181900968719404088e-02
2.287136359165257704e-01
5.443636329566087229e-01
1.394550027048802321e-01
2.464949928185682371e-01
3.922489602769879680e-01
3.628439029160973606e-01
1.951998067012707949e-01
2.006892753849549293e-01
2.247075475552528789e-01
1.704607269742147990e-01
1.412676444472091286e-01
2.424706091688311194e-01
1.792274444434003022e-01
2.973432359484513565e-01
2.745132049056213108e-01
2.938790253286982512e-01
1.071342589607698070e-01
4.902280029341918866e-01
3.573338589805754029e-01
1.818095337946887546e-01
2.229282904525887732e-01
2.512647029542728339e-01
5.121761353289318031e-01
2.769282633290858775e-01
1.101599913251856411e-01
5.328248284017061964e-01
3.075395652776440336e-01
3.227194923789787340e-01
1.771380756629551967e-01
4.193578397850226125e-01
3.570135990543787941e-01
9.708661270331278015e-01
3.890674746092510627e-01
1.317271246310663113e-01
3.151023685504732996e-01
1.252910448168994550e-01
1.092534260674424273e-01
1.910236688089209794e-02
8.119354444810095162e-02
2.613520121412792330e-01
1.230800568716331339e-01
2.503448144161795619e-01
5.915743225517927639e-01
1.861710081521755211e-01
2.573664279624844897e-01
8.413528904272296605e-02
1.715121983853902798e-01
2.164136120460133372e-01
3.459797144190212004e-01
2.883768681538397827e-01
1.822245470144136237e-01
1.766675632072456092e-01
1.703346058003856744e-01
4.543766092169850834e-01
4.438329051537835968e-01
3.363184727238026084e-01
1.331690336110085693e-01
1.684915729971996623e-01
1.234929399671406691e-01
2.130655519002191689e-01
2.498212029163885683e-01
1.724446127116573968e-01
2.391339347692619244e-01
3.919401524538155823e-01
7.872446683470418760e-02
2.672160784403316280e-01
1.051945844592368368e-01
3.208864187166327042e-01
2.925347386265503280e-01
8.449239376888158237e-02
1.267373237172283729e-01
3.330517861917784428e-01
8.370888951388748278e-02
2.529816247129267337e-01
2.073452585058297992e-01
3.651821525064142815e-01
5.081255899237824281e-01
2.344672384557542899e-01
3.506939106855750943e-01
1.790123876389431712e-01
1.051097675593628822e-01
6.723474431549263386e-01
1.947778019391517845e-01
1.692655063681321737e-01
5.614453444219543732e-01
3.677720427006349047e-01
3.064951430898216755e-01
2.038033853947410212e-01
2.862933224506515884e-01
2.541243450835830031e-01
2.275882469337173475e-01
4.445736454783854597e-01
2.887013667847331266e-01
2.104350249872136980e-01
5.503056449071123124e-01
4.272743952608209494e-01
2.178578726835818935e-01
1.220656149190833817e-01
8.184245812837115386e-02
5.818055717633483642e-02
3.324865457468569735e-02
1.031903453860560038e+00
1.220569982446262913e-01
3.354157129929369319e-01
2.403428937317236280e-01
2.913797487204442538e-01
1.196972027995486937e-01
4.131075890036598475e-01
4.981380772388194211e-01
3.117911922922135259e-01
1.202358936062305206e-01
4.847113370483890904e-01
1.673279482001518714e-01
2.603341676133026916e-01
2.139247740128868147e-01
2.033281609691735270e-01
3.593203527877705250e-01
1.387941541864037565e-01
1.227736047158935473e-01
4.035277577837524943e-01
3.134748378428816040e-01
2.089966164913811819e-01
1.721861014650373778e-01
1.845364839944017288e-01
2.023265133297706686e-01
2.961132837285751496e-01
5.196335317614597660e-01
4.620320325293603703e-01
1.800445937541294006e-01
8.948444597058893835e-02
3.723175211115466454e-01
2.917513171829178020e-01
2.486702775881858007e-01
2.228411432589754437e-01
2.507074159836975569e-01
2.929523833007678379e-01
3.070726678897305328e-01
4.695705818698793776e-01
3.881732701319090539e-02
3.939790325327482412e-01
2.412834038025154504e-01
1.904543650101715446e-01
9.741876764152088142e-02
3.338860567013741121e-01
4.745440307048138795e-01
6.269674604537944784e-01
3.897483160685927817e-01
1.469101364910229413e-01
9.263558455895096189e-02
2.800191377860163922e-01
4.184609973608822281e-02
2.153097320185815566e-01
6.815211321644718545e-01
3.906172484645945575e-01
8.987306826317443820e-01
1.371051753286774699e-01
1.724355545974547987e-01
2.345949122326392633e+00
1.774686569365468980e-01
9.990775610520710726e-02
2.952668952127712743e-01
3.467372747571848546e-01
2.991748723527096754e-01
3.254761271148730595e-01
4.487081591883821940e-01
3.393071854099647400e-01
1.046921603781480054e-01
5.202580248583819511e+00
3.079942872913812857e-01
1.218748749989317787e-01
1.555404327695669442e-01
4.178365759185377892e-01
2.124587329502367894e-01
8.367701169492909596e-02
1.721365915446641526e-01
2.439195880158683272e-01
2.631006782892395535e-01
1.993407557703163746e-01
1.475490086049579264e-01
1.843285440263254804e-01
1.234504882439531326e-01
1.842906906340935347e-01
2.053227280136364907e-01
1.832357358558947269e-01
2.231828459220880634e-01
4.893037518960355325e-01
3.092187919851860922e-01
7.873336508157162406e-02
1.461784733757585664e-01
3.120183418166829759e-01
2.730895554257825042e-01
1.131317257653383368e-01
1.643213457208066997e-01
2.826363489268730045e-01
2.876832446474430482e-01
7.021191363701311250e-01
2.089062756956763800e-01
1.479157797128628216e-01
2.929421677258824408e-01
3.438924701855146093e-01
4.319419865440663475e-01
5.271798232947921825e-01
1.341645621211068340e-01
9.993116165649217064e-02
2.071089904538100379e-01
2.363938168858761846e-01
3.963127630072308394e-01
3.200735762785106298e-01
2.335087780270943547e-01
1.104164917021159403e-01
2.794030832764761163e-01
3.825221400350892753e-01
6.545891031165368412e-01
1.856935558230526917e-01
2.168743025115672518e-01
2.676370707754953671e-01
1.706799489504711720e-01
9.018894887705078411e-02
2.795026779069775813e-01
6.196824007873819040e-01
5.789316110684514793e-01
5.859375513314089012e-01
2.163628793093102243e-01
1.190676688419349677e-01
2.198590147274010476e-01
2.974454818785069454e-01
3.895573467352943520e-01
7.548842593082809305e-02
1.012739635635518665e-01
1.702568483981359848e-01
3.415537311892073435e-01
2.532449832781554777e-01
4.202428818976463032e-01
2.047132810951569626e-01
3.600239126762457276e-01
3.817590103836323023e-01
1.755307116678548884e-01
4.595169203526032753e-01
3.509671269196799059e-01
2.770895923276557316e-01
1.885023659667207641e-01
6.533260024053931803e-01
8.596440508193855523e-01
3.586393472629436641e-01
1.539682993371173370e-01
2.173231487329811973e-01
1.292173821499314756e-01
9.827968119550514747e-02
2.236798027977831560e-01
2.785307267132432485e-01
1.240657849838508742e-01
2.969920435378194945e-01
1.521912284665935255e-01
1.704567446189140800e-01
2.527255530388660132e-01
3.286955726902858754e-01
3.595207900062559747e-01
2.217008227920762853e-01
4.945564204638492334e-01
1.561157334100269911e-01
2.128665135547269105e-01
3.063121441338451101e-01
5.156801569661132456e-01
1.912180409633727762e-01
3.072484382115066581e-01
1.831819490017394803e-01
2.336997926259773706e-01
2.050031775106625487e-01
2.359204283735601704e-01
1.337982030585348758e-01
4.355767797735957125e-01
2.850293939057251258e-01
5.656999833535053535e-01
6.614709437661807356e-02
6.600160712068905977e-02
1.040788666698308496e-01
2.681630610416551042e-01
9.768905866137241045e-02
1.965743795610331024e-01
4.866988933417930041e-01
1.051052817849865040e+00
4.922810795437869147e-01
6.868739981942177941e-01
1.499523885599405026e-01
2.246697708352374256e-01
3.940223481346780132e-01
1.653978558516072672e-01
3.454507939440239483e-01
6.716782591373490763e-02
2.644662268678237838e-01
1.568295905654195632e-01
8.568423268139026272e-02
3.560466416411835477e-01
2.549615501780571059e-01
2.534423586713765997e-01
3.925215785656352985e-01
2.567569432121575290e-01
2.132299541587128755e-01
2.313221791619098910e-01
1.796514206912239453e-01
1.366527520014486630e-01
3.379405534450738435e-02
2.661946717906887860e-01
2.380479244487800905e-01
2.205014256764810388e-01
3.278591688242423752e-01
3.380960691225888826e-01
1.798154534211573730e-01
1.322779172168369044e-01
2.188532008914428895e-01
2.045241838470016893e-01
4.164573971611017500e-01
5.331656215903578522e-01
3.321779180558633859e-01
1.890683578345741800e-01
1.436271225650075367e-01
2.979666522517635530e-01
4.368536494488853839e-01
1.151916750686874658e-01
2.652233823898238474e-01
1.418889750101341718e-01
2.160185741815091320e-01
3.469754090186512596e-01
4.215606011638438066e-01
4.369881951309079748e-01
3.108473928220308879e-01
1.103710029032404449e+00
5.412729876665182960e-02
3.675398632860289450e-01
2.675171951193683340e-01
4.484028812556918875e-01
1.966114840803000752e-01
2.723652408343209541e-01
2.996722518989372586e-01
2.372909400545714642e-01
1.648602946051673512e-01
3.817220017327626058e-01
1.212893933857223105e-01
1.341287415789299275e-01
1.714744297273398943e-01
4.609859668991641568e-01
2.287229107049812971e-01
1.980244705263117244e-01
3.482378207955807436e-01
1.595570226544341386e-01
9.418405162104392936e-02
2.297818102476571478e-01
6.166995289362361965e-02
1.871134392576364602e-01
2.334681911882354743e-01
1.521856808215392987e-01
2.252819508712879670e-01
8.214848750454945003e-02
2.705638259213926089e-01
2.405387731629274328e-01
1.269937883346094198e-01
1.876644996146449584e-01
3.556773181139171736e-01
1.207728028503893686e-01
2.783240813726840512e-01
3.841576924828738471e-01
3.127369135655714283e-01
8.285610882338997896e-02
2.256873574123615389e-01
4.616424177678386531e-01
1.933497564928484402e-01
1.648464914785327806e-01
1.562289619862487211e-01
1.862617905151985331e-01
5.128510199319351315e-02
6.768063214202865718e-02
2.287193804316171586e-01
1.724684605535376503e-01
2.863710555103444744e-01
4.840911900427939396e-01
2.197501664513378805e-01
1.835657184551157672e-01
2.398860852963651813e-01
4.296948273080584690e-01
1.559671540462062023e-01
3.828530842620268548e-01
3.720623915812895088e-01
2.031422102078849212e-01
1.356297010626243693e-01
1.204539244017528987e-01
1.679581949032311339e-01
4.210006161398047730e-01
1.190535309930292329e-01
2.876222468705910695e-01
9.185569511973352974e-02
3.278475333263564107e-01
9.493833286858777143e-01
2.328037039157539179e-01
1.432602746722513309e-01
1.758648135228485510e-01
4.931460153031965721e-01
1.834094631196574177e-01
8.397919203126000265e-02
2.969897020395263487e-01
9.669777229902609683e-02
1.053087309683464340e-01
7.103226301527836017e-02
2.525275682513978825e-01
1.733679860420636321e-01
2.908445652500784573e-01
1.508968879445281852e-01
1.358622570690893316e-01
2.386682171574942835e-01
2.123366319972595784e-01
2.104321396341996664e+00
1.825048192008899284e-01
1.797948965058876747e-01
2.338528876341733898e-01
4.059038788840256262e-01
2.843624466954557950e-01
1.521646475305024060e-01
3.436373774395257152e-01
2.140675845371453612e-01
1.324028131449470902e-01
2.368882141893672577e-01
1.262055975727553181e-01
3.043003853400826908e-01
1.750409555630172975e-01
4.795140765953668227e-01
1.067957221964028758e-01
3.252988197859771335e-01
1.980375170162920473e-01
1.931374528604867802e-01
1.778505737531478892e-01
3.449066941108950290e-01
7.468262055346058803e-02
7.592567075045727476e-01
2.392185198620330744e-01
1.179304341122611316e-01
2.581032563858075557e-01
1.612415577521743304e-01
3.278652425071686971e-01
3.283306486361490806e-01
3.090234619743907896e-01
2.200429504121013402e-01
2.563881905420166141e-01
2.491140232613242023e-01
1.759358800972729842e-01
1.080090854905394748e-01
4.698617009346411910e-02
4.978063774351362825e-01
3.908229969110804114e-01
1.876506907345021347e-01
2.538787117656098880e-01
1.919925771514796320e-01
3.691406986128097367e-01
1.331175841631017931e-01
2.823065438021845064e-01
1.551479481774964142e-01
3.034186193270008158e-01
9.308423613888756887e-02
2.841697269310129448e-01
1.540380568402401062e-01
1.834016722295848667e-01
2.385856230733236494e-01
2.180347804941342726e-01
2.206731093368561603e-01
1.084573374629810294e+00
1.183368909271720060e-01
1.696838142160962681e-01
3.095147024687723847e-01
2.198565259380947379e-01
1.294662197190626640e-01
1.428526568537838992e-01
1.565029066594908480e-01
2.123934117854220649e-01
2.864853330883854743e-01
2.794379504493182953e-01
3.248547341859442938e-01
3.265307627071135643e-01
3.543382417879867852e-01
7.971340361516306150e-02
2.723529630224485465e-01
3.450614149901767846e-01
8.493985739897244591e-02
2.325184782848384035e-01
1.337044522382599965e-01
1.706547335905946594e-01
3.355701417168715506e-01
2.849712632935270662e-01
5.728149616695283886e-01
4.561425836592537530e-01
2.833556511523085963e-01
1.331574287465949191e-01
2.608231939673348876e-01
1.048505648487068620e-01
4.389753351774503543e-01
2.510187820142200654e-01
1.485924518366705527e-01
1.550585245136043011e-01
1.029036432203014773e+00
1.266653226434204804e-01
2.640924047596664992e-01
2.208616404135347322e-01
2.167291179069892326e-01
6.360692299385771742e-01
6.125397676049244566e-01
5.955059277322968248e-01
1.067367645561836387e-01
1.632927440251566165e-01
3.348995442792317423e-01
3.475508087892219544e-01
2.502997050543351309e-01
3.502585243286000516e-01
2.136304803270416275e-01
2.218157639919406676e-01
2.504664505850795475e-01
2.662912693821286592e-01
1.760870439970852741e-01
2.753082650232897555e-01
2.548746579639022403e-01
1.684230258385238377e-01
1.002670814146820882e-01
1.252351784385940525e-01
1.819867762010966561e-01
7.793594590454708260e-02
4.068929193065259908e-01
3.861823217625231508e-01
9.857373385583100278e-01
1.309132179256446982e-01
2.110757038170514854e-01
4.206687509722639717e-01
3.443413742194770255e-01
2.912068404735861926e-01
3.061021901518929389e-01
3.673872299121551388e-02
1.501638893419561249e-01
2.367656835625424616e-01
2.268410991398676080e-01
1.306156722856110231e-01
4.974081662355550049e-01
3.957038573518661950e-01
2.858027340365993929e-01
2.213985271139378153e-01
1.203554597035434159e-01
2.427681302217775672e-01
1.568111108820971489e-01
1.830396982466855060e-01
2.239918695113093661e-01
1.989166730252869553e-01
3.903859868877969652e-01
2.433496322865134620e-01
2.012763920710368970e-01
2.171424467018778504e-01
2.939809773904517698e+00
3.011762443857837201e-01
1.489395113335332532e-01
2.164988268985171271e-01
2.177016821043933070e-01
5.732657220664181263e-01
2.773394121206091412e-01
3.461808563020938312e-01
1.540645056660364176e+01
1.506983291691699756e-01
8.917526183057349065e-02
3.602600406363984376e-01
9.125112546883937248e-02
2.052078771597631579e-01
4.542661628489286230e-01
1.803127155871528109e-01
2.010578830185635046e-01
1.096183629415932170e-01
2.648310109559749992e-01
1.238614059313339344e-01
1.463920036071892916e-01
4.321244383505679632e-01
2.673410901375167237e-01
3.427546225476664210e-01
3.931323276605527273e-01
4.521647561448649544e-01
2.792907260248089218e-01
3.703117036174417565e-01
3.146710486003230223e-01
8.432214791919069308e-01
2.442598221318519336e-01
2.075087813169378403e+00
1.714563485444087210e-01
2.476411366445499251e-01
6.764881973858711817e-01
4.459992049859776708e-01
1.985311704009587730e-01
7.700831185654101463e-02
1.204040012431029927e-01
1.922740562625298577e-01
1.781167220467859691e-01
5.140578280757337470e-01
3.378821601206760117e-01
2.198597237840929919e-01
1.622873615833171357e-01
1.411370368480196757e-01
3.009297600874219492e-01
4.235407898296230655e-01
4.050337253954964800e-01
1.698707155009665792e-01
1.008882000166414633e-01
1.367055199968512103e-01
2.153134471356907831e-01
2.783959547469386786e-01
3.013855471733756231e-01
1.633077992033562242e-01
2.516532608788838443e-01
3.244595634139851303e-01
8.122362538264858989e-01
2.976822061875787906e-01
1.583365849317159013e-01
2.782445342046402925e-01
7.288063547717318902e-02
9.072907646286074157e-02
8.512249352470744324e-01
4.318762872964899691e-01
2.321317121728397881e-01
3.398348852302581213e-01
1.826666811398603152e-01
1.646920553754407934e-01
1.701879944114704224e-01
6.003976945342053700e-02
2.972153801481478563e-01
3.400731174651283606e-01
4.133633528890556241e-01
1.735992082184708296e-01
1.554933682151517504e-01
2.177187787126002583e-01
1.314230131671781376e-01
2.378533715101182611e-01
8.926125810721280418e-02
2.410690498507195856e-01
5.242652463031781673e-01
3.068007526541059460e-01
2.181061699203556414e-01
1.307786699228270233e-01
1.203785347896918489e-01
4.832181369696020995e-02
1.881300356395339823e-01
2.199167615797450737e-01
1.649398019016632411e-01
5.721519428683300434e-01
2.467047948371304811e-01
2.671539627108535653e-01
4.351773389755922983e-01
1.817544055951332005e-01
8.761390151563007433e-02
2.233750517342513453e-01
4.386227664422633898e-01
4.374342536713149987e-01
2.236917378210205309e-01
1.477817851213159006e-01
3.245537417523560175e-01
8.217313631429569443e-02
1.391089403134929126e-01
7.470168789541950516e-02
5.768661042783254089e-01
3.606207555195251047e-01
9.315318398712550685e-02
4.299731798110758008e-01
2.875743658401303526e-01
1.868297595153031176e-01
3.286268817468594450e-01
4.005917040556072339e-01
2.393940582734672973e-01
2.094311580212651902e-01
3.061360121555610214e-01
1.468524658776265146e-01
1.669428053947955848e-01
2.054475145196666408e-01
2.825827958067379519e-01
1.446102921342760916e-01
1.990056337931048192e-01
1.268359018008730077e-01
2.235433337754812455e-01
1.347311377731001958e-01
2.436228362241584233e-01
2.770039455177321086e-01
3.928751728006328658e+00
6.268030983597338013e-01
8.999598584822050551e-01
1.672377035869127559e-01
2.104815494726014757e-01
3.469482884701072245e-01
3.700995418213632870e-01
2.049145502337365032e-01
7.103885922917763107e-02
1.178586129592574805e-01
1.356954360692766981e-01
2.827788441923154150e-01
2.163801887064968898e-01
1.332948103647836335e-01
1.022741035534954213e-01
1.251815142171632533e-01
